a0,a1,a2,a3,a4,a0_f1,a0_f2,a0_f3,a0_f4,a0_f5,a0_f6,a0_f7,a0_f8,a1_f1,a1_f2,a1_f3,a1_f4,a1_f5,a1_f6,a1_f7,a1_f8,a2_f1,a2_f2,a2_f3,a2_f4,a2_f5,a2_f6,a2_f7,a2_f8,a3_f1,a3_f2,a3_f3,a3_f4,a3_f5,a3_f6,a3_f7,a3_f8,a4_f1,a4_f2,a4_f3,a4_f4,a4_f5,a4_f6,a4_f7,a4_f8,a0_rms,a0_mav,a0_wl,a0_zc,a0_ssc,a0_wamp,a1_rms,a1_mav,a1_wl,a1_zc,a1_ssc,a1_wamp,a2_rms,a2_mav,a2_wl,a2_zc,a2_ssc,a2_wamp,a3_rms,a3_mav,a3_wl,a3_zc,a3_ssc,a3_wamp,a4_rms,a4_mav,a4_wl,a4_zc,a4_ssc,a4_wamp,label,action_name
0.00,0.00,0.00,0.00,0.00,0.00,0.00,0.00,0.00,0.00,0.00,0.00,0.00,0.00,0.00,0.00,0.00,0.00,0.00,0.00,0.00,0.00,0.00,0.00,0.00,0.00,0.00,0.00,0.00,0.00,0.00,0.00,0.00,0.00,0.00,0.00,0.00,0.00,0.00,0.00,0.00,0.00,0.00,0.00,0.00,0.00,0.00,0.00,0.00,0.00,0.00,0.00,0.00,0.00,0.00,0.00,0.00,0.00,0.00,0.00,0.00,0.00,0.00,0.00,0.00,0.00,0.00,0.00,0.00,0.00,0.00,0.00,0.00,0.00,0.00,0,휴식 (Relax)
-7.50,-10.31,0.00,-41.25,-14.06,8.00,8.00,8.00,8.00,8.00,8.00,8.00,8.00,11.00,11.00,11.00,11.00,11.00,11.00,11.00,11.00,0.00,0.00,0.00,0.00,0.00,0.00,0.00,0.00,44.00,44.00,44.00,44.00,44.00,44.00,44.00,44.00,15.00,15.00,15.00,15.00,15.00,15.00,15.00,15.00,1.94,0.94,8.00,1.00,0.00,0.00,2.66,1.29,11.00,1.00,0.00,1.00,0.00,0.00,0.00,0.00,0.00,0.00,10.65,5.16,44.00,1.00,0.00,1.00,3.63,1.76,15.00,1.00,0.00,1.00,0,휴식 (Relax)
8.00,-19.94,5.62,-7.56,-1.88,3.12,6.12,8.89,11.31,13.30,14.78,15.69,16.00,32.44,30.78,28.11,24.60,20.49,16.21,12.56,11.00,6.00,6.00,6.00,6.00,6.00,6.00,6.00,6.00,54.33,52.36,49.27,45.35,41.07,37.05,34.10,33.00,17.81,17.25,16.38,15.30,14.13,13.05,12.28,12.00,2.83,1.00,24.00,1.00,1.00,1.00,5.79,3.61,22.00,1.00,0.00,2.00,1.45,0.70,6.00,1.00,0.00,0.00,10.80,6.02,77.00,1.00,1.00,2.00,3.66,1.97,27.00,1.00,1.00,2.00,0,휴식 (Relax)
-7.50,-8.25,-0.38,-17.19,-6.38,6.78,3.31,1.88,8.00,14.12,19.31,22.78,24.00,42.33,37.56,30.42,22.00,13.58,6.44,1.67,0.00,6.00,6.00,6.00,6.00,6.00,6.00,6.00,6.00,72.47,59.73,41.57,24.60,24.83,38.91,50.68,55.00,24.40,19.89,13.46,7.62,8.69,14.16,18.44,20.00,3.43,1.88,40.00,3.00,2.00,2.00,6.15,4.47,33.00,1.00,1.00,3.00,1.45,0.70,12.00,2.00,1.00,0.00,11.65,7.82,88.00,1.00,2.00,3.00,4.00,2.64,32.00,1.00,2.00,2.00,0,휴식 (Relax)
8.00,-7.56,-0.38,-5.50,-1.19,5.77,8.66,6.80,0.00,10.18,20.91,29.00,32.00,50.70,39.13,23.94,11.00,9.70,12.75,12.24,11.00,6.00,6.00,6.00,6.00,6.00,6.00,6.00,6.00,79.76,57.85,31.12,22.00,35.71,44.47,45.20,44.00,26.38,19.36,10.61,7.00,11.68,15.46,16.83,17.00,4.00,2.00,56.00,3.00,3.00,3.00,6.41,5.16,33.00,1.00,1.00,3.00,1.45,0.70,12.00,2.00,1.00,0.00,11.67,8.25,99.00,1.00,3.00,4.00,3.99,2.72,37.00,1.00,3.00,2.00,0,휴식 (Relax)
0.00,-6.88,9.94,-15.12,-5.69,5.77,8.66,6.80,0.00,10.18,20.91,29.00,32.00,57.20,35.20,12.98,15.56,19.96,14.58,5.76,0.00,14.41,7.98,5.92,12.53,16.70,15.82,10.32,5.00,90.34,43.53,22.50,44.00,36.56,22.92,50.78,66.00,30.21,14.10,7.75,15.00,11.66,7.94,19.36,25.00,4.00,2.00,64.00,3.00,4.00,3.00,6.59,5.67,33.00,1.00,1.00,3.00,2.95,1.86,23.00,3.00,1.00,1.00,12.22,9.45,110.00,1.00,4.00,5.00,4.22,3.18,42.00,1.00,4.00,2.00,0,휴식 (Relax)
7.50,4.12,-1.06,-3.44,-3.31,13.70,13.86,4.45,8.00,8.78,13.86,31.55,40.00,57.20,35.20,12.98,15.56,19.96,14.58,5.76,0.00,14.41,7.98,5.92,12.53,16.70,15.82,10.32,5.00,93.36,33.00,32.99,45.35,25.58,33.00,51.08,55.00,32.11,8.46,13.60,16.16,5.67,13.80,19.49,19.00,4.44,2.81,72.00,5.00,5.00,3.00,6.59,5.67,44.00,2.00,1.00,4.00,2.95,1.86,34.00,4.00,2.00,2.00,12.12,9.45,121.00,1.00,5.00,6.00,4.27,3.36,44.00,1.00,5.00,2.00,0,휴식 (Relax)
7.00,4.12,-1.06,-13.06,-2.94,21.46,17.13,6.50,11.31,1.29,21.78,32.12,32.00,57.20,35.20,12.98,15.56,19.96,14.58,5.76,0.00,14.41,7.98,5.92,12.53,16.70,15.82,10.32,5.00,94.67,16.21,49.42,24.60,40.47,30.78,44.29,77.00,32.77,3.41,17.55,10.82,10.00,11.42,17.03,25.00,4.80,3.50,72.00,5.00,5.00,3.00,6.59,5.67,44.00,2.00,1.00,4.00,2.95,1.86,34.00,4.00,2.00,2.00,12.43,10.05,132.00,1.00,6.00,7.00,4.28,3.46,44.00,5.00,5.00,2.00,0,휴식 (Relax)
-8.50,-16.50,4.56,8.94,0.25,15.46,19.87,11.25,17.89,6.74,27.51,37.16,24.00,51.23,29.95,33.94,15.56,41.86,23.56,16.73,22.00,15.59,2.51,0.09,11.00,22.09,19.49,6.41,1.00,94.67,16.21,49.42,24.60,40.47,30.78,44.29,77.00,32.34,4.88,16.84,9.49,10.82,10.01,19.01,22.00,5.27,3.75,88.00,6.00,5.00,4.00,7.78,6.88,66.00,3.00,1.00,5.00,3.16,2.34,40.00,5.00,2.00,2.00,12.43,10.05,154.00,2.00,7.00,8.00,4.21,3.34,47.00,6.00,5.00,2.00,0,휴식 (Relax)
-0.50,26.12,-1.44,-1.38,-7.06,15.46,19.87,11.25,17.89,6.74,27.51,37.16,24.00,64.18,18.83,36.47,15.56,53.15,45.45,37.48,44.00,15.59,2.51,0.09,11.00,22.09,19.49,6.41,1.00,88.84,26.39,38.76,34.79,29.72,41.51,36.58,88.00,28.83,15.88,6.69,20.22,0.27,20.54,9.81,33.00,5.27,3.75,96.00,6.00,6.00,4.00,10.20,7.91,110.00,4.00,2.00,6.00,3.16,2.34,46.00,6.00,3.00,2.00,12.22,9.62,165.00,3.00,8.00,9.00,4.51,3.80,55.00,7.00,6.00,2.00,0,휴식 (Relax)
7.00,4.12,-6.12,-0.69,3.94,16.72,13.69,14.94,25.30,13.52,33.05,29.16,32.00,64.18,18.83,36.47,15.56,53.15,45.45,37.48,44.00,18.10,7.01,5.08,12.08,26.77,16.34,6.45,4.00,80.51,36.48,33.01,39.66,37.37,36.48,46.52,77.00,28.83,15.88,6.69,20.22,0.27,20.54,9.81,33.00,5.57,4.38,104.00,7.00,6.00,4.00,10.20,7.91,132.00,4.00,3.00,7.00,3.52,2.45,51.00,6.00,3.00,2.00,11.97,9.02,165.00,3.00,8.00,9.00,4.51,3.80,66.00,8.00,7.00,3.00,0,휴식 (Relax)
-8.50,4.12,-5.81,0.00,-1.69,18.47,15.36,7.89,24.00,19.92,41.04,21.90,40.00,64.18,18.83,36.47,15.56,53.15,45.45,37.48,44.00,22.57,10.46,8.40,16.76,23.80,16.02,8.10,1.00,70.34,42.36,41.39,31.11,41.93,33.31,35.52,88.00,24.27,16.93,9.60,14.32,6.02,22.52,3.83,39.00,5.98,4.69,120.00,8.00,7.00,5.00,10.20,7.91,132.00,4.00,3.00,7.00,3.81,2.57,51.00,6.00,3.00,2.00,11.67,8.25,165.00,2.00,8.00,9.00,4.41,3.73,72.00,9.00,8.00,3.00,0,휴식 (Relax)
-0.50,4.12,-0.81,-9.62,-1.31,18.47,15.36,7.89,24.00,19.92,41.04,21.90,40.00,64.18,18.83,36.47,15.56,53.15,45.45,37.48,44.00,22.57,10.46,8.40,16.76,23.80,16.02,8.10,1.00,48.35,45.58,61.12,22.00,20.50,52.56,56.45,66.00,18.86,15.42,15.28,14.32,6.90,25.06,9.75,33.00,5.98,4.69,128.00,8.00,8.00,5.00,10.20,7.91,132.00,4.00,3.00,7.00,3.81,2.57,56.00,6.00,3.00,2.00,11.59,8.77,176.00,9.00,8.00,10.00,4.28,3.56,72.00,9.00,8.00,3.00,0,휴식 (Relax)
-8.00,-16.50,4.81,12.38,-2.81,26.14,9.02,15.87,25.30,12.41,41.36,21.14,48.00,50.89,27.92,57.24,15.56,39.55,67.41,47.44,22.00,17.11,14.77,14.33,22.56,18.01,22.00,2.30,5.00,48.35,45.58,61.12,22.00,20.50,52.56,56.45,66.00,10.96,10.75,18.18,22.20,1.95,17.39,4.65,41.00,6.32,5.00,136.00,5.00,9.00,5.00,11.00,8.94,154.00,5.00,3.00,8.00,4.00,3.03,62.00,7.00,3.00,2.00,11.59,8.77,198.00,10.00,9.00,11.00,4.17,3.41,74.00,9.00,8.00,3.00,0,휴식 (Relax)
7.50,5.50,4.44,-8.25,-2.31,18.27,17.00,14.43,32.98,8.35,37.08,25.85,56.00,50.89,27.92,57.24,15.56,39.55,67.41,47.44,22.00,14.12,20.71,18.02,22.02,19.47,17.92,8.29,1.00,35.52,26.62,41.93,31.11,41.39,64.27,70.34,44.00,3.43,4.90,15.23,22.56,6.17,24.86,8.13,33.00,6.61,5.62,152.00,9.00,10.00,6.00,11.00,8.94,176.00,6.00,4.00,9.00,4.15,3.40,62.00,7.00,3.00,2.00,11.34,8.94,220.00,11.00,10.00,12.00,4.00,3.14,74.00,9.00,8.00,3.00,0,휴식 (Relax)
7.00,-4.81,4.06,3.44,2.88,12.57,23.58,22.19,35.78,4.41,44.77,18.81,48.00,55.14,22.08,48.00,11.00,37.54,67.78,58.40,11.00,15.61,24.86,16.77,16.03,24.07,18.00,3.44,5.00,37.23,15.67,33.06,24.60,36.19,65.97,66.63,55.00,3.15,2.50,12.35,19.65,5.45,23.62,6.92,36.00,6.86,6.12,152.00,9.00,10.00,6.00,10.98,8.94,187.00,7.00,5.00,10.00,4.26,3.67,62.00,7.00,3.00,2.00,10.80,8.42,231.00,12.00,11.00,13.00,3.79,2.91,79.00,10.00,8.00,3.00,0,휴식 (Relax)
-1.00,-4.12,-1.94,4.12,5.88,12.57,23.58,22.19,35.78,4.41,44.77,18.81,48.00,64.02,12.89,39.01,22.00,27.94,75.11,48.07,22.00,15.61,24.86,16.77,16.03,24.07,18.00,3.44,5.00,45.08,12.41,38.10,15.56,29.17,56.87,66.16,44.00,3.15,2.50,12.35,19.65,5.45,23.62,6.92,36.00,6.86,6.12,152.00,10.00,9.00,6.00,10.91,8.77,176.00,6.00,5.00,9.00,4.26,3.67,68.00,8.00,3.00,2.00,10.20,7.91,187.00,11.00,10.00,12.00,3.79,2.91,67.00,9.00,7.00,2.00,0,휴식 (Relax)
-1.50,6.19,3.69,12.38,-2.56,16.16,20.95,18.95,32.98,4.98,47.42,11.08,40.00,53.25,23.89,37.28,24.60,19.68,86.11,40.98,33.00,21.35,21.41,13.43,22.02,23.78,12.14,7.63,11.00,13.05,35.20,10.64,34.79,15.92,14.58,65.60,0.00,4.27,9.14,11.08,13.00,5.07,17.28,6.74,29.00,6.46,5.69,136.00,9.00,8.00,5.00,10.98,8.94,176.00,7.00,4.00,9.00,4.34,3.85,68.00,8.00,3.00,2.00,7.66,6.02,165.00,10.00,9.00,12.00,3.04,2.58,63.00,9.00,7.00,1.00,0,휴식 (Relax)
21.50,15.12,-1.94,1.38,5.25,31.26,12.32,4.09,48.66,12.46,55.21,25.35,56.00,21.46,52.67,13.91,56.09,29.28,66.97,57.69,0.00,15.44,27.23,10.24,22.56,18.63,7.53,13.62,17.00,13.05,35.20,10.64,34.79,15.92,14.58,65.60,0.00,6.86,11.16,8.60,12.17,2.37,20.18,7.03,32.00,8.35,6.81,144.00,9.00,7.00,5.00,10.91,8.77,176.00,7.00,4.00,9.00,4.26,3.67,68.00,8.00,4.00,2.00,7.66,6.02,165.00,9.00,9.00,12.00,3.27,2.81,66.00,9.00,7.00,1.00,0,휴식 (Relax)
-3.00,13.75,-1.94,0.69,1.94,39.19,8.12,4.34,50.60,10.00,47.31,19.84,48.00,17.42,65.46,9.41,56.09,40.58,62.79,52.93,22.00,15.44,27.23,10.24,22.56,18.63,7.53,13.62,17.00,10.09,34.49,16.00,24.60,14.52,22.47,61.54,11.00,10.96,12.50,4.79,17.12,4.91,18.05,5.36,27.00,7.94,6.38,152.00,9.00,7.00,5.00,11.34,8.94,176.00,7.00,4.00,9.00,4.26,3.67,68.00,8.00,4.00,2.00,7.24,5.16,154.00,8.00,8.00,11.00,3.23,2.82,64.00,8.00,7.00,1.00,0,휴식 (Relax)
-2.50,12.38,-6.62,-9.62,-0.88,32.47,15.36,6.16,58.24,17.75,41.04,19.62,40.00,36.81,68.63,23.75,34.79,22.07,80.13,49.34,0.00,13.34,28.74,9.20,22.00,20.08,11.91,17.61,22.00,16.02,42.36,22.16,22.00,8.71,33.31,55.21,22.00,9.28,13.73,3.95,17.03,5.52,19.59,5.28,24.00,7.86,6.12,144.00,8.00,6.00,5.00,11.59,8.77,176.00,7.00,4.00,9.00,4.57,3.91,62.00,7.00,3.00,1.00,7.66,6.02,154.00,8.00,7.00,11.00,3.20,2.72,62.00,8.00,6.00,1.00,0,휴식 (Relax)
-10.00,-40.56,15.00,11.00,-2.88,29.16,22.77,13.52,60.93,14.94,42.26,16.72,48.00,4.50,88.82,40.94,55.00,46.42,112.61,49.41,33.00,13.93,31.53,4.08,28.00,26.08,17.60,21.66,28.00,7.93,20.62,9.35,44.00,14.00,49.79,39.87,44.00,9.28,13.73,3.95,17.03,5.52,19.59,5.28,24.00,8.25,6.50,144.00,7.00,6.00,5.00,15.42,11.60,220.00,7.00,4.00,9.00,5.48,4.38,73.00,7.00,4.00,1.00,7.78,5.50,165.00,4.00,7.00,11.00,3.20,2.72,62.00,8.00,6.00,1.00,0,휴식 (Relax)
13.50,-6.88,8.31,0.00,-0.88,29.55,20.42,14.80,68.35,22.27,38.77,14.28,56.00,9.33,99.82,50.60,49.19,38.89,106.45,51.15,22.00,17.08,42.34,7.24,30.08,24.32,15.40,19.50,17.00,7.93,20.62,9.35,44.00,14.00,49.79,39.87,44.00,9.28,13.73,3.95,17.03,5.52,19.59,5.28,24.00,8.82,7.12,168.00,8.00,7.00,6.00,15.50,12.03,253.00,7.00,5.00,10.00,5.86,4.90,79.00,7.00,5.00,1.00,7.78,5.50,165.00,4.00,7.00,11.00,3.20,2.72,64.00,8.00,6.00,1.00,0,휴식 (Relax)
-2.00,24.75,-7.38,-11.00,-0.88,32.17,16.67,6.81,65.97,28.22,31.65,13.04,64.00,12.68,86.17,56.19,69.57,53.39,113.59,66.92,0.00,16.68,38.40,6.19,34.79,29.09,19.63,22.21,12.00,7.93,20.62,9.35,44.00,14.00,49.79,39.87,44.00,9.28,13.73,3.95,17.03,5.52,19.59,5.28,24.00,8.72,6.75,168.00,8.00,7.00,6.00,16.73,13.06,264.00,7.00,4.00,10.00,6.12,5.17,89.00,7.00,4.00,2.00,7.78,5.50,154.00,3.00,6.00,11.00,3.20,2.72,61.00,7.00,5.00,1.00,0,휴식 (Relax)
-2.50,-8.94,3.62,21.31,2.12,26.71,24.00,11.93,58.24,27.46,24.00,13.52,72.00,23.18,89.15,67.18,66.91,44.03,103.37,56.35,11.00,16.68,38.40,6.19,34.79,29.09,19.63,22.21,12.00,12.24,30.50,9.70,45.35,23.94,60.56,50.70,33.00,9.28,13.73,3.95,17.03,5.52,19.59,5.28,24.00,8.35,6.44,160.00,8.00,7.00,6.00,16.14,12.20,253.00,7.00,4.00,10.00,6.12,5.17,94.00,7.00,5.00,3.00,9.09,6.53,176.00,7.00,7.00,11.00,3.20,2.72,56.00,7.00,4.00,1.00,0,휴식 (Relax)
-2.50,13.75,-2.38,-11.00,-5.88,26.71,24.00,11.93,58.24,27.46,24.00,13.52,72.00,15.53,79.40,64.32,77.78,47.67,93.27,45.40,22.00,16.68,38.40,6.19,34.79,29.09,19.63,22.21,12.00,12.01,20.92,18.01,34.79,26.96,69.90,60.37,22.00,9.28,13.73,3.95,17.03,5.52,19.59,5.28,24.00,8.35,6.44,152.00,7.00,6.00,6.00,15.31,11.69,253.00,8.00,5.00,10.00,6.12,5.17,95.00,8.00,6.00,3.00,9.53,6.88,209.00,5.00,8.00,12.00,3.20,2.72,53.00,7.00,4.00,0.00,0,휴식 (Relax)
13.00,2.75,-2.69,0.00,-0.50,18.81,27.71,4.41,65.97,22.19,27.71,12.57,80.00,15.53,79.40,64.32,77.78,47.67,93.27,45.40,22.00,12.04,33.42,9.84,36.67,24.13,18.79,27.05,7.00,12.01,20.92,18.01,34.79,26.96,69.90,60.37,22.00,15.09,9.05,4.52,17.72,6.84,15.04,3.01,18.00,8.89,7.12,152.00,7.00,5.00,6.00,15.31,11.69,264.00,8.00,6.00,11.00,5.86,4.90,95.00,8.00,6.00,3.00,9.53,6.88,220.00,5.00,9.00,13.00,2.92,2.31,52.00,6.00,5.00,0.00,0,휴식 (Relax)
-11.00,-7.56,2.62,0.00,-0.50,18.81,27.71,4.41,65.97,22.19,27.71,12.57,80.00,21.10,74.63,73.64,66.91,52.34,98.37,39.45,33.00,1.29,25.89,19.85,27.20,28.91,27.89,19.19,18.00,12.01,20.92,18.01,34.79,26.96,69.90,60.37,22.00,15.09,9.05,4.52,17.72,6.84,15.04,3.01,18.00,8.89,7.12,168.00,8.00,5.00,7.00,15.42,12.12,275.00,9.00,6.00,12.00,5.56,4.62,96.00,9.00,6.00,3.00,9.53,6.88,209.00,5.00,8.00,12.00,2.92,2.31,52.00,6.00,5.00,0.00,0,휴식 (Relax)
-3.00,-6.88,6.94,9.62,2.31,18.81,27.71,4.41,65.97,22.19,27.71,12.57,80.00,31.52,79.58,73.06,69.57,59.58,87.76,41.65,22.00,9.76,29.86,23.64,22.56,35.90,17.73,24.11,7.00,10.04,3.49,39.97,46.67,33.25,49.07,63.02,0.00,13.65,7.04,7.51,18.79,9.83,12.98,0.87,21.00,8.89,7.12,168.00,8.00,5.00,7.00,15.50,12.38,253.00,8.00,5.00,11.00,5.77,4.80,95.00,8.00,6.00,3.00,9.43,7.39,198.00,8.00,7.00,12.00,2.97,2.48,53.00,7.00,5.00,0.00,0,휴식 (Relax)
-3.50,13.06,-3.69,-11.00,-2.69,15.83,19.87,12.36,64.50,22.07,27.51,19.73,72.00,4.37,48.38,104.11,39.66,90.91,60.91,51.55,11.00,4.97,24.07,27.46,16.76,41.45,17.05,26.44,1.00,12.88,23.56,36.67,34.79,54.88,29.95,64.73,22.00,13.65,7.04,7.51,18.79,9.83,12.98,0.87,21.00,8.47,6.81,152.00,7.00,5.00,6.00,15.17,11.95,253.00,8.00,4.00,11.00,5.83,4.94,106.00,9.00,7.00,4.00,9.53,6.88,198.00,4.00,7.00,12.00,2.97,2.48,58.00,8.00,6.00,0.00,0,휴식 (Relax)
4.50,2.06,2.31,9.62,-0.81,15.83,19.87,12.36,64.50,22.07,27.51,19.73,72.00,4.37,48.38,104.11,39.66,90.91,60.91,51.55,11.00,4.97,24.07,27.46,16.76,41.45,17.05,26.44,1.00,9.44,14.58,16.28,15.56,63.96,35.20,65.32,44.00,14.50,5.49,6.33,18.03,8.43,11.49,1.63,23.00,8.47,6.81,160.00,8.00,5.00,6.00,15.17,11.95,253.00,7.00,5.00,11.00,5.83,4.94,112.00,10.00,8.00,4.00,9.43,7.39,209.00,9.00,8.00,12.00,2.90,2.39,55.00,7.00,7.00,0.00,0,휴식 (Relax)
4.50,1.38,-8.00,-11.69,-0.62,15.83,19.87,12.36,64.50,22.07,27.51,19.73,72.00,15.15,44.93,99.33,49.19,81.60,68.97,51.05,22.00,12.79,23.36,29.66,27.46,31.75,28.04,25.70,10.00,2.54,7.89,26.15,24.60,58.57,46.00,64.09,55.00,12.30,6.25,9.32,15.23,5.63,11.87,4.27,26.00,8.47,6.81,152.00,7.00,5.00,6.00,15.00,11.34,253.00,7.00,5.00,11.00,6.15,5.25,117.00,10.00,8.00,5.00,9.89,7.82,231.00,10.00,9.00,13.00,2.85,2.23,52.00,7.00,6.00,0.00,0,휴식 (Relax)
-11.00,-9.62,-3.00,-0.69,5.38,9.92,13.69,20.11,72.44,19.07,33.05,25.87,64.00,15.15,44.93,99.33,49.19,81.60,68.97,51.05,22.00,12.79,23.36,29.66,27.46,31.75,28.04,25.70,10.00,2.54,7.89,26.15,24.60,58.57,46.00,64.09,55.00,12.30,6.25,9.32,15.23,5.63,11.87,4.27,26.00,8.89,7.12,168.00,8.00,5.00,7.00,15.00,11.34,253.00,7.00,5.00,11.00,6.15,5.25,116.00,9.00,8.00,5.00,9.89,7.82,231.00,9.00,9.00,13.00,2.85,2.23,50.00,7.00,5.00,0.00,0,휴식 (Relax)
-3.00,1.38,7.69,10.31,-0.75,9.92,13.69,20.11,72.44,19.07,33.05,25.87,64.00,15.15,44.93,99.33,49.19,81.60,68.97,51.05,22.00,8.39,18.45,34.33,32.39,31.05,28.66,28.96,5.00,2.54,7.89,26.15,24.60,58.57,46.00,64.09,55.00,14.30,8.06,10.92,13.42,3.79,9.95,3.75,24.00,8.89,7.12,152.00,7.00,5.00,6.00,15.00,11.34,253.00,8.00,6.00,11.00,6.42,5.60,121.00,9.00,8.00,6.00,9.89,7.82,231.00,9.00,9.00,13.00,2.77,2.16,48.00,7.00,5.00,0.00,0,휴식 (Relax)
6.00,12.38,2.31,9.62,2.44,6.56,10.61,11.19,56.57,16.75,25.60,32.97,48.00,15.15,44.93,99.33,49.19,81.60,68.97,51.05,22.00,7.30,16.04,35.15,33.84,36.77,23.84,23.55,11.00,8.68,16.84,35.03,22.00,67.06,40.65,53.96,66.00,11.53,5.44,8.59,15.00,2.40,8.97,5.60,21.00,7.21,5.75,136.00,7.00,5.00,5.00,15.00,11.34,264.00,8.00,6.00,12.00,6.39,5.56,126.00,9.00,9.00,6.00,10.20,8.59,231.00,9.00,9.00,13.00,2.50,1.90,48.00,8.00,6.00,0.00,0,휴식 (Relax)
-2.00,2.06,-8.38,-11.69,2.44,6.56,10.61,11.19,56.57,16.75,25.60,32.97,48.00,17.75,44.04,89.30,39.66,75.96,77.76,62.03,11.00,6.04,14.15,39.34,38.60,40.08,18.86,18.59,16.00,3.64,16.21,38.14,33.00,76.69,30.78,42.97,77.00,11.53,5.44,8.59,15.00,2.40,8.97,5.60,21.00,7.21,5.75,144.00,8.00,6.00,5.00,14.66,10.83,275.00,8.00,7.00,13.00,6.68,5.88,132.00,10.00,8.00,7.00,10.63,9.11,242.00,10.00,8.00,13.00,2.50,1.90,45.00,7.00,6.00,0.00,0,휴식 (Relax)
-2.00,13.06,-3.69,-1.38,-2.44,6.56,10.61,11.19,56.57,16.75,25.60,32.97,48.00,17.75,44.04,89.30,39.66,75.96,77.76,62.03,11.00,8.76,18.59,35.44,37.48,38.37,16.14,13.81,21.00,7.68,8.42,27.15,34.79,76.63,20.33,32.79,88.00,11.04,6.80,10.59,13.89,4.04,10.94,7.59,19.00,7.21,5.75,136.00,8.00,5.00,5.00,14.66,10.83,231.00,7.00,7.00,13.00,6.39,5.56,115.00,9.00,8.00,6.00,10.20,8.59,231.00,9.00,8.00,13.00,2.57,1.98,48.00,8.00,6.00,0.00,0,휴식 (Relax)
-10.00,-21.31,3.00,-0.69,-5.25,6.56,10.61,11.19,56.57,16.75,25.60,32.97,48.00,6.19,22.08,68.92,24.60,55.41,67.78,48.02,33.00,3.98,9.25,33.56,26.68,27.45,22.33,9.38,32.00,6.04,19.05,32.54,24.60,66.95,19.05,26.72,99.00,12.08,9.79,12.06,16.55,5.16,8.72,5.12,22.00,7.21,5.75,120.00,7.00,4.00,4.00,11.32,9.11,231.00,8.00,8.00,13.00,5.44,4.88,115.00,10.00,8.00,6.00,9.89,7.82,220.00,8.00,8.00,12.00,2.84,2.09,49.00,8.00,6.00,0.00,0,휴식 (Relax)
6.50,-20.62,3.31,-11.00,-0.25,8.72,9.27,19.18,48.66,9.54,28.46,27.29,40.00,9.87,30.36,77.43,15.56,56.88,73.28,47.84,44.00,7.41,10.66,28.98,26.02,30.32,17.33,8.34,27.00,16.81,28.74,28.80,31.11,76.03,11.91,29.18,88.00,12.08,9.79,12.06,16.55,5.16,8.72,5.12,22.00,6.46,5.06,120.00,7.00,5.00,4.00,12.22,9.97,198.00,7.00,7.00,12.00,5.11,4.56,99.00,9.00,7.00,5.00,10.29,8.25,220.00,6.00,7.00,12.00,2.84,2.09,54.00,8.00,7.00,0.00,0,휴식 (Relax)
-9.00,-7.56,2.62,-0.69,-4.94,13.83,8.66,23.21,48.00,11.10,20.91,34.57,48.00,42.72,48.98,76.37,24.60,24.88,41.41,43.45,11.00,8.78,2.87,37.88,15.03,26.88,12.80,11.58,16.00,6.88,26.56,39.61,24.60,75.00,4.56,31.41,77.00,16.90,10.75,7.17,12.21,7.58,12.90,7.03,27.00,6.86,5.38,136.00,8.00,6.00,5.00,10.80,9.37,176.00,6.00,6.00,12.00,4.75,4.20,88.00,8.00,6.00,4.00,9.89,7.82,198.00,7.00,7.00,12.00,3.11,2.34,56.00,6.00,7.00,0.00,0,휴식 (Relax)
6.50,-17.88,2.62,0.69,0.25,11.80,13.86,27.91,40.00,9.28,13.86,42.56,56.00,53.19,51.59,67.42,31.11,33.48,51.59,46.39,22.00,8.78,2.87,37.88,15.03,26.88,12.80,11.58,16.00,25.82,19.05,33.73,11.00,55.09,19.05,38.11,55.00,19.87,10.10,7.44,10.77,9.06,10.10,4.47,24.00,7.05,5.88,152.00,9.00,7.00,6.00,11.59,10.14,165.00,5.00,6.00,12.00,4.75,4.20,82.00,7.00,6.00,4.00,8.22,6.45,165.00,9.00,6.00,11.00,3.01,2.22,53.00,6.00,7.00,0.00,0,휴식 (Relax)
-1.50,4.81,-3.38,0.00,-4.75,11.80,13.86,27.91,40.00,9.28,13.86,42.56,56.00,62.20,47.95,58.07,24.60,36.97,47.95,39.44,11.00,8.78,2.87,37.88,15.03,26.88,12.80,11.58,16.00,18.16,26.94,23.74,22.00,46.89,26.94,41.81,44.00,19.87,10.10,7.44,10.77,9.06,10.10,4.47,24.00,7.05,5.88,144.00,9.00,7.00,5.00,10.98,9.54,176.00,6.00,7.00,12.00,4.75,4.20,88.00,8.00,6.00,4.00,7.78,5.50,154.00,4.00,6.00,10.00,3.01,2.22,53.00,6.00,8.00,0.00,0,휴식 (Relax)
7.00,4.81,-3.38,0.00,3.06,7.85,11.31,28.75,32.00,16.50,11.31,37.41,48.00,62.20,47.95,58.07,24.60,36.97,47.95,39.44,11.00,8.78,2.87,37.88,15.03,26.88,12.80,11.58,16.00,18.16,26.94,23.74,22.00,46.89,26.94,41.81,44.00,18.23,13.09,6.58,10.05,9.19,9.30,7.46,27.00,6.24,5.25,128.00,9.00,7.00,4.00,10.98,9.54,165.00,5.00,7.00,11.00,4.75,4.20,82.00,7.00,6.00,4.00,7.78,5.50,154.00,4.00,6.00,10.00,3.11,2.34,61.00,7.00,9.00,0.00,0,휴식 (Relax)
-9.00,-6.19,-3.00,-20.62,-6.50,7.85,11.31,28.75,32.00,16.50,11.31,37.41,48.00,62.20,47.95,58.07,24.60,36.97,47.95,39.44,11.00,6.50,7.26,35.19,21.02,20.94,13.83,16.29,22.00,25.37,22.92,27.81,44.00,24.90,43.53,52.94,66.00,20.27,9.93,3.19,3.16,16.13,5.79,14.11,34.00,6.24,5.25,136.00,10.00,8.00,5.00,10.98,9.54,176.00,6.00,7.00,12.00,4.77,4.25,77.00,7.00,5.00,4.00,9.43,7.39,165.00,9.00,5.00,10.00,3.54,2.88,68.00,8.00,9.00,1.00,0,휴식 (Relax)
-1.00,-37.12,19.25,12.38,6.31,7.85,11.31,28.75,32.00,16.50,11.31,37.41,48.00,65.40,41.51,80.88,56.09,65.62,26.39,72.13,44.00,11.15,11.40,47.19,23.71,21.67,25.34,28.21,34.00,25.37,22.92,27.81,44.00,24.90,43.53,52.94,66.00,20.27,8.56,5.75,5.00,17.75,4.09,16.64,37.00,6.24,5.25,144.00,10.00,9.00,5.00,14.49,11.86,187.00,5.00,6.00,12.00,6.57,5.00,89.00,7.00,4.00,4.00,9.43,7.39,176.00,9.00,5.00,10.00,3.79,3.02,76.00,8.00,9.00,2.00,0,휴식 (Relax)
-1.00,7.56,1.88,0.69,-6.38,7.85,11.31,28.75,32.00,16.50,11.31,37.41,48.00,65.90,50.99,78.84,55.00,58.51,23.37,62.67,33.00,15.40,17.35,49.80,29.15,15.68,20.56,22.56,28.00,27.54,12.75,38.68,55.00,18.43,39.13,41.97,55.00,18.56,13.22,4.19,8.94,15.81,2.27,20.10,42.00,6.24,5.25,136.00,9.00,9.00,5.00,13.87,11.26,220.00,6.00,7.00,12.00,6.52,4.86,100.00,6.00,4.00,5.00,9.09,6.53,165.00,8.00,5.00,10.00,4.11,3.41,87.00,9.00,10.00,3.00,0,휴식 (Relax)
30.44,17.88,1.88,1.38,0.62,32.81,27.44,53.35,57.00,25.19,27.44,22.43,73.00,69.58,40.65,89.48,66.00,64.90,16.84,57.18,22.00,15.40,17.35,49.80,29.15,15.68,20.56,22.56,28.00,21.17,18.83,37.37,56.09,7.43,45.45,31.68,44.00,18.56,13.22,4.19,8.94,15.81,2.27,20.10,42.00,9.87,7.20,169.00,10.00,9.00,6.00,14.49,11.86,231.00,6.00,7.00,13.00,6.52,4.86,89.00,5.00,3.00,4.00,8.59,6.19,143.00,7.00,4.00,9.00,4.11,3.41,94.00,10.00,11.00,3.00,0,휴식 (Relax)
-2.06,-3.44,-4.44,-19.94,-1.25,25.71,20.15,51.86,57.56,24.25,31.17,18.81,81.00,62.08,46.00,83.44,66.91,75.48,7.89,57.71,11.00,16.90,17.56,45.02,24.60,19.34,24.20,21.12,23.00,15.21,22.47,47.81,66.91,15.32,34.49,40.06,55.00,16.90,13.93,5.51,7.21,14.90,1.35,20.35,44.00,9.79,6.84,186.00,10.00,9.00,6.00,14.40,11.69,242.00,6.00,7.00,13.00,6.18,4.51,90.00,6.00,3.00,4.00,9.70,7.22,154.00,7.00,4.00,9.00,4.12,3.47,90.00,10.00,11.00,3.00,0,휴식 (Relax)
-10.06,-3.44,1.19,12.38,6.75,25.71,20.15,51.86,57.56,24.25,31.17,18.81,81.00,62.08,46.00,83.44,66.91,75.48,7.89,57.71,11.00,18.25,15.01,44.92,27.80,14.45,18.24,20.70,29.00,23.74,26.94,41.81,69.57,18.16,26.94,46.89,66.00,16.90,13.93,5.51,7.21,14.90,1.35,20.35,44.00,9.79,6.84,186.00,10.00,9.00,6.00,14.40,11.69,231.00,5.00,7.00,12.00,6.09,4.23,85.00,6.00,3.00,3.00,10.20,7.56,176.00,8.00,5.00,9.00,4.12,3.47,92.00,11.00,11.00,3.00,0,휴식 (Relax)
-2.06,17.88,-4.12,-8.25,0.75,25.71,20.15,51.86,57.56,24.25,31.17,18.81,81.00,73.04,55.34,72.86,69.57,85.15,18.03,49.34,22.00,21.32,25.15,34.75,20.25,20.85,14.54,20.17,40.00,3.38,6.44,32.18,49.19,18.92,37.56,58.61,88.00,16.90,13.93,5.51,7.21,14.90,1.35,20.35,44.00,9.79,6.84,186.00,9.00,9.00,6.00,15.00,12.38,242.00,6.00,6.00,12.00,5.97,4.23,86.00,7.00,4.00,3.00,9.92,7.91,198.00,9.00,6.00,10.00,4.12,3.47,95.00,11.00,12.00,3.00,0,휴식 (Relax)
-1.56,7.56,-8.44,-17.19,-0.94,28.07,27.92,50.23,49.65,22.80,39.07,26.78,73.00,62.65,44.89,74.71,59.24,93.75,25.43,39.35,33.00,30.88,35.26,27.55,30.08,12.07,10.32,24.53,29.00,30.50,26.56,7.54,70.43,45.41,4.56,56.94,55.00,12.92,9.41,5.48,10.82,15.63,6.13,24.71,39.00,9.68,6.34,178.00,8.00,9.00,6.00,14.40,11.69,242.00,6.00,6.00,12.00,6.33,4.69,80.00,6.00,3.00,2.00,10.27,8.77,187.00,8.00,5.00,10.00,4.01,3.31,97.00,11.00,12.00,3.00,0,휴식 (Relax)
-1.56,-13.06,1.88,4.12,4.06,28.07,27.92,50.23,49.65,22.80,39.07,26.78,73.00,49.00,40.91,58.48,70.43,101.33,31.44,61.29,11.00,19.89,32.08,23.12,28.00,19.81,8.88,34.38,18.00,21.24,20.33,17.70,64.14,53.61,8.42,64.07,44.00,12.92,9.41,5.48,10.82,15.63,6.13,24.71,39.00,9.68,6.34,178.00,8.00,9.00,6.00,14.66,11.95,253.00,7.00,5.00,12.00,5.97,4.23,86.00,7.00,4.00,3.00,10.20,8.42,198.00,8.00,6.00,10.00,4.01,3.31,97.00,11.00,13.00,3.00,0,휴식 (Relax)
-9.06,-11.00,6.19,14.44,3.75,35.69,30.56,45.78,57.56,18.13,38.73,33.25,65.00,55.99,69.40,29.03,98.39,68.42,4.93,31.95,44.00,10.26,39.73,12.48,39.00,12.51,15.97,23.38,29.00,18.89,26.56,25.83,73.79,57.49,4.56,54.14,55.00,13.97,8.07,6.15,15.23,14.04,8.42,20.05,44.00,9.95,6.59,178.00,8.00,8.00,6.00,14.02,11.00,220.00,3.00,5.00,11.00,6.09,4.23,85.00,6.00,4.00,3.00,10.80,8.85,209.00,8.00,6.00,11.00,4.12,3.47,94.00,11.00,12.00,3.00,0,휴식 (Relax)
5.94,19.94,-4.44,24.06,3.25,19.91,38.73,38.15,61.85,31.14,30.56,44.53,49.00,36.19,40.91,37.23,116.93,66.63,31.44,33.06,77.00,13.98,33.76,17.12,39.46,17.17,21.86,18.02,35.00,34.74,48.56,30.63,85.91,35.55,17.44,76.07,33.00,16.08,6.31,14.10,14.14,8.35,0.45,26.25,36.00,9.79,6.84,178.00,8.00,8.00,6.00,14.66,11.95,253.00,7.00,5.00,12.00,6.18,4.51,96.00,7.00,5.00,4.00,12.43,9.71,209.00,7.00,5.00,11.00,4.05,3.31,89.00,10.00,11.00,3.00,0,휴식 (Relax)
5.94,38.50,-8.75,1.38,3.06,19.91,38.73,38.15,61.85,31.14,30.56,44.53,49.00,41.86,65.91,51.23,162.41,16.73,44.14,33.94,22.00,21.27,28.17,18.69,50.36,10.35,17.84,26.13,24.00,45.68,56.87,26.23,77.78,40.18,12.41,65.75,44.00,16.72,5.86,15.31,11.18,11.34,3.42,24.68,39.00,9.79,6.84,162.00,7.00,7.00,5.00,17.39,13.75,264.00,7.00,4.00,12.00,6.57,5.00,101.00,7.00,5.00,4.00,12.22,8.94,220.00,6.00,6.00,11.00,4.13,3.45,84.00,9.00,10.00,3.00,0,휴식 (Relax)
4.94,15.12,2.25,-8.94,-4.94,17.64,51.80,34.12,57.56,29.98,16.20,49.30,33.00,55.26,87.79,48.98,153.21,38.38,22.81,28.60,44.00,21.27,28.17,18.69,50.36,10.35,17.84,26.13,24.00,35.34,56.43,37.13,85.91,35.00,21.12,58.38,55.00,16.72,5.86,15.31,11.18,11.34,3.42,24.68,39.00,9.52,6.83,146.00,6.00,6.00,4.00,17.77,14.27,275.00,7.00,4.00,12.00,6.57,5.00,112.00,8.00,6.00,5.00,12.43,9.71,231.00,7.00,6.00,12.00,4.13,3.45,87.00,9.00,9.00,3.00,0,휴식 (Relax)
-2.56,-7.56,-3.38,2.06,0.06,13.91,50.29,27.03,65.49,23.73,17.00,50.48,25.00,60.70,95.23,39.77,143.00,36.94,29.23,25.11,33.00,22.98,33.83,13.19,44.41,15.90,23.82,27.95,18.00,35.34,56.43,37.13,85.91,35.00,21.12,58.38,55.00,16.72,5.86,15.31,11.18,11.34,3.42,24.68,39.00,9.46,6.52,146.00,6.00,5.00,4.00,17.27,13.49,275.00,7.00,4.00,12.00,6.60,5.05,112.00,8.00,7.00,5.00,12.43,9.71,242.00,8.00,7.00,13.00,4.13,3.45,87.00,9.00,9.00,3.00,0,휴식 (Relax)
-2.56,-6.88,2.25,22.69,2.56,13.91,50.29,27.03,65.49,23.73,17.00,50.48,25.00,59.44,95.86,49.57,139.14,47.34,31.23,21.91,22.00,23.61,28.64,13.94,44.00,17.45,28.64,28.70,12.00,48.18,34.49,53.61,103.77,48.48,22.47,59.89,33.00,11.77,5.07,16.45,14.87,18.83,10.78,20.60,31.00,9.46,6.52,138.00,5.00,4.00,4.00,17.34,13.75,275.00,7.00,4.00,12.00,6.57,5.00,118.00,9.00,8.00,5.00,13.73,10.57,264.00,8.00,7.00,14.00,3.98,3.31,82.00,8.00,8.00,3.00,0,휴식 (Relax)
5.44,4.12,1.88,-9.62,-0.25,13.91,50.29,27.03,65.49,23.73,17.00,50.48,25.00,59.44,95.86,49.57,139.14,47.34,31.23,21.91,22.00,27.56,28.00,10.31,38.00,21.97,28.00,30.26,18.00,44.71,42.36,44.98,110.00,46.17,33.31,59.38,22.00,14.11,2.08,13.45,17.20,19.41,13.40,18.64,28.00,9.46,6.52,130.00,5.00,3.00,3.00,17.34,13.75,275.00,7.00,4.00,12.00,6.52,4.86,118.00,9.00,8.00,5.00,13.95,11.34,275.00,8.00,7.00,14.00,3.93,3.16,75.00,8.00,8.00,2.00,0,휴식 (Relax)
-3.06,-6.88,1.50,-10.31,-2.56,21.85,44.31,19.17,65.00,31.30,21.69,44.22,17.00,59.44,95.86,49.57,139.14,47.34,31.23,21.91,22.00,33.22,32.52,4.32,38.47,17.16,24.13,26.52,12.00,44.02,42.60,42.49,101.41,35.80,42.60,56.59,11.00,9.29,6.72,16.06,14.87,15.78,15.77,14.53,23.00,9.09,6.21,130.00,6.00,4.00,3.00,17.34,13.75,253.00,8.00,4.00,12.00,6.44,4.62,95.00,8.00,7.00,4.00,13.17,10.48,242.00,7.00,6.00,13.00,3.52,2.88,64.00,7.00,7.00,1.00,0,휴식 (Relax)
-3.06,-19.25,2.56,-8.94,-0.19,21.85,44.31,19.17,65.00,31.30,21.69,44.22,17.00,40.30,83.98,66.68,118.47,25.54,14.41,7.25,0.00,16.34,15.82,18.72,21.84,27.97,7.98,15.62,5.00,55.23,28.08,63.89,88.68,25.65,53.31,48.72,11.00,15.28,6.06,19.61,9.43,10.25,16.04,8.99,17.00,9.09,6.21,130.00,6.00,4.00,3.00,14.81,12.38,220.00,7.00,4.00,12.00,4.37,3.83,78.00,8.00,7.00,3.00,13.03,10.57,231.00,7.00,6.00,12.00,3.23,2.48,53.00,6.00,6.00,0.00,0,휴식 (Relax)
-10.56,-17.88,7.25,2.06,-0.62,16.50,39.07,16.33,65.49,35.82,27.92,52.21,25.00,61.88,79.80,73.78,112.18,30.13,29.87,21.65,22.00,20.74,18.79,18.54,21.02,32.31,3.30,12.88,10.00,55.23,28.08,63.89,88.68,25.65,53.31,48.72,11.00,9.38,2.74,13.34,14.42,13.02,13.73,2.19,10.00,9.46,6.52,105.00,5.00,3.00,2.00,15.50,13.23,209.00,7.00,3.00,11.00,4.71,4.06,83.00,8.00,7.00,3.00,13.03,10.57,242.00,8.00,6.00,13.00,2.64,2.16,46.00,6.00,5.00,0.00,0,휴식 (Relax)
7.00,15.12,-3.38,2.06,-0.62,27.49,14.78,10.05,40.79,14.10,6.12,31.50,0.00,61.88,79.80,73.78,112.18,30.13,29.87,21.65,22.00,17.25,19.94,12.92,27.02,32.34,6.20,9.45,16.00,55.23,28.08,63.89,88.68,25.65,53.31,48.72,11.00,9.38,2.74,13.34,14.42,13.02,13.73,2.19,10.00,5.57,4.38,88.00,5.00,4.00,2.00,15.50,13.23,220.00,7.00,3.00,11.00,4.75,4.20,88.00,8.00,7.00,4.00,13.03,10.57,220.00,7.00,5.00,12.00,2.64,2.16,44.00,6.00,4.00,0.00,0,휴식 (Relax)
6.50,-6.88,-3.38,11.00,-0.75,19.81,22.38,13.00,43.08,19.10,11.79,29.42,8.00,61.88,79.80,73.78,112.18,30.13,29.87,21.65,22.00,17.25,19.94,12.92,27.02,32.34,6.20,9.45,16.00,26.16,49.79,96.44,62.23,36.02,20.62,18.23,44.00,9.51,1.46,15.29,12.81,13.39,11.74,0.64,8.00,5.81,4.88,80.00,5.00,3.00,2.00,15.50,13.23,242.00,8.00,4.00,12.00,4.75,4.20,82.00,7.00,6.00,4.00,12.30,9.62,198.00,2.00,4.00,12.00,2.56,2.06,36.00,5.00,3.00,0.00,0,휴식 (Relax)
5.50,3.44,2.62,0.69,-0.38,3.94,33.45,28.69,28.84,8.54,5.74,29.67,8.00,56.90,87.51,82.47,101.41,21.83,28.51,24.85,33.00,17.25,19.94,12.92,27.02,32.34,6.20,9.45,16.00,32.41,48.56,94.23,55.00,33.71,17.44,8.15,55.00,8.09,7.28,12.98,10.20,9.38,9.33,6.18,2.00,5.45,4.81,72.00,5.00,3.00,2.00,15.42,13.06,231.00,8.00,4.00,12.00,4.75,4.20,82.00,7.00,6.00,4.00,11.97,9.11,187.00,5.00,5.00,12.00,2.18,1.64,30.00,4.00,3.00,0.00,0,휴식 (Relax)
5.00,-6.19,2.25,10.31,2.44,5.53,35.69,31.71,25.30,4.32,2.54,31.52,0.00,60.85,89.44,64.89,99.00,6.75,21.69,35.17,55.00,14.19,18.20,6.93,27.46,34.57,7.54,3.46,22.00,32.13,36.48,76.19,73.79,14.88,36.48,14.20,77.00,9.37,5.30,10.60,13.15,6.41,11.40,9.09,1.00,5.57,5.00,72.00,5.00,3.00,2.00,15.05,12.46,231.00,9.00,5.00,12.00,4.71,4.06,77.00,7.00,5.00,4.00,11.97,9.20,187.00,7.00,5.00,12.00,2.26,1.83,31.00,5.00,2.00,0.00,0,휴식 (Relax)
-3.00,25.44,-13.44,-2.06,-0.69,5.53,35.69,31.71,25.30,4.32,2.54,31.52,0.00,65.33,71.96,60.99,121.00,28.63,19.68,48.22,77.00,17.99,15.71,10.18,32.39,39.56,8.45,2.03,27.00,49.58,19.05,57.72,66.91,36.41,19.05,12.06,55.00,11.09,6.13,8.83,13.00,7.11,9.41,7.51,1.00,5.57,5.00,80.00,6.00,3.00,2.00,16.37,14.01,242.00,9.00,6.00,12.00,5.40,4.45,82.00,7.00,5.00,4.00,10.45,8.34,176.00,8.00,6.00,12.00,2.17,1.73,29.00,5.00,3.00,0.00,0,휴식 (Relax)
4.50,-8.25,7.25,8.25,5.12,13.36,28.46,24.12,28.84,5.23,9.27,38.94,8.00,73.38,60.98,50.99,121.50,25.90,25.26,44.64,66.00,13.15,20.41,12.45,32.00,41.46,8.45,7.01,32.00,60.52,8.42,61.65,56.09,35.21,20.33,2.96,66.00,14.08,9.09,9.73,10.00,9.30,11.55,9.20,2.00,5.63,5.06,80.00,7.00,3.00,2.00,15.80,13.41,275.00,10.00,7.00,13.00,5.67,4.69,98.00,8.00,5.00,5.00,10.65,8.94,176.00,8.00,7.00,12.00,2.47,1.97,35.00,6.00,4.00,0.00,0,휴식 (Relax)
-4.00,1.38,-3.06,-2.06,2.12,20.68,20.91,25.23,22.63,5.02,8.66,30.96,0.00,94.60,49.07,37.10,99.61,11.16,3.49,46.19,88.00,24.13,11.83,3.45,21.00,35.08,10.30,17.76,43.00,50.12,19.05,50.67,55.00,45.70,19.05,9.55,77.00,14.08,9.09,9.73,10.00,9.30,11.55,9.20,2.00,4.90,4.50,72.00,7.00,4.00,1.00,15.00,12.38,253.00,10.00,8.00,13.00,5.41,4.55,98.00,8.00,6.00,5.00,10.45,8.34,176.00,9.00,7.00,12.00,2.47,1.97,38.00,6.00,5.00,0.00,0,휴식 (Relax)
-3.50,2.06,2.56,-0.69,2.12,15.60,25.08,17.28,28.84,12.66,16.34,24.04,8.00,83.76,46.00,31.09,101.41,2.94,7.89,46.62,99.00,18.88,12.47,4.00,21.84,29.12,11.77,23.15,49.00,37.36,36.48,48.43,33.00,36.65,36.48,15.48,55.00,14.08,9.09,9.73,10.00,9.30,11.55,9.20,2.00,4.87,4.50,72.00,7.00,4.00,1.00,14.66,11.69,231.00,10.00,7.00,12.00,5.40,4.45,99.00,9.00,6.00,5.00,9.09,6.53,154.00,8.00,7.00,11.00,2.47,1.97,38.00,6.00,5.00,0.00,0,휴식 (Relax)
-3.00,4.12,-3.75,-11.00,-2.56,16.72,25.60,14.94,25.30,13.52,10.61,29.16,0.00,58.79,26.94,2.35,69.57,35.64,26.94,63.09,66.00,16.58,11.32,5.78,17.09,30.82,14.00,19.94,44.00,38.92,41.51,59.11,34.79,27.91,26.39,4.48,66.00,12.64,12.74,13.87,11.18,4.60,6.60,8.40,7.00,4.80,4.38,72.00,7.00,4.00,1.00,11.59,9.62,209.00,10.00,7.00,11.00,5.03,4.06,94.00,9.00,6.00,4.00,9.53,6.88,154.00,1.00,6.00,11.00,2.50,1.90,35.00,6.00,4.00,0.00,0,휴식 (Relax)
5.00,4.81,-3.38,-0.69,-2.75,16.72,25.60,14.94,25.30,13.52,10.61,29.16,0.00,56.55,19.05,13.04,66.91,32.62,19.05,53.18,77.00,17.38,16.19,9.67,20.00,27.08,19.95,19.58,38.00,33.16,44.89,53.55,24.60,18.37,25.43,7.19,77.00,12.14,9.81,11.72,8.60,2.94,4.45,8.16,10.00,4.80,4.38,72.00,7.00,4.00,1.00,10.98,8.94,187.00,9.00,7.00,10.00,5.07,4.20,88.00,8.00,5.00,4.00,9.09,6.53,154.00,8.00,7.00,11.00,2.17,1.78,30.00,6.00,4.00,0.00,0,휴식 (Relax)
4.50,4.12,2.25,-0.69,-0.75,9.86,33.45,10.50,24.00,12.95,5.74,30.08,8.00,54.52,29.95,14.42,56.09,42.56,23.56,42.24,88.00,18.86,10.56,5.70,25.06,21.23,24.91,23.00,32.00,33.16,44.89,53.55,24.60,18.37,25.43,7.19,77.00,12.14,9.81,11.72,8.60,2.94,4.45,8.16,10.00,4.87,4.50,72.00,7.00,4.00,1.00,10.91,8.77,187.00,9.00,7.00,10.00,5.03,4.06,88.00,8.00,5.00,4.00,9.09,6.53,132.00,7.00,6.00,10.00,2.17,1.78,29.00,5.00,3.00,0.00,0,휴식 (Relax)
-11.00,-27.50,2.25,11.00,5.06,17.62,27.31,6.67,32.00,20.89,4.69,35.45,16.00,67.56,18.83,7.94,64.14,60.07,45.45,21.82,110.00,18.86,10.56,5.70,25.06,21.23,24.91,23.00,32.00,43.60,35.20,43.34,15.56,7.60,14.58,5.94,66.00,10.12,10.91,14.72,11.18,5.69,7.15,6.68,13.00,5.57,5.00,80.00,7.00,3.00,2.00,12.90,10.31,209.00,9.00,6.00,10.00,5.03,4.06,88.00,8.00,5.00,4.00,7.78,5.50,110.00,0.00,6.00,10.00,2.46,2.04,32.00,5.00,3.00,0.00,0,휴식 (Relax)
-2.50,15.81,-12.75,-11.00,-0.94,25.50,28.46,3.04,32.98,18.54,9.27,28.09,8.00,57.61,14.28,8.98,73.79,59.58,54.24,17.63,121.00,7.12,14.96,11.02,39.85,11.02,35.72,7.12,48.00,43.60,35.20,43.34,15.56,7.60,14.58,5.94,66.00,10.12,10.91,14.72,11.18,5.69,7.15,6.68,13.00,5.45,4.81,80.00,6.00,4.00,2.00,13.45,10.91,242.00,9.00,7.00,10.00,5.98,4.91,104.00,9.00,5.00,5.00,7.78,5.50,132.00,1.00,7.00,11.00,2.46,2.04,36.00,6.00,4.00,0.00,0,휴식 (Relax)
5.00,4.12,-2.38,-0.69,-2.94,19.07,21.78,9.92,40.79,25.87,17.13,20.11,0.00,46.66,9.11,19.61,79.32,69.69,53.11,18.04,110.00,6.14,16.63,15.24,42.05,16.95,29.79,13.07,42.00,34.40,30.78,33.26,11.00,10.18,16.21,5.18,77.00,10.12,10.91,14.72,11.18,5.69,7.15,6.68,13.00,5.57,5.00,88.00,7.00,4.00,2.00,13.40,10.66,242.00,9.00,8.00,10.00,5.96,4.88,114.00,9.00,6.00,6.00,7.24,5.16,143.00,8.00,8.00,12.00,2.46,2.04,36.00,6.00,4.00,0.00,0,휴식 (Relax)
4.50,-7.56,-2.00,-11.69,-0.94,17.38,13.86,16.11,43.08,21.34,13.86,27.84,8.00,36.24,7.89,24.49,70.43,62.57,46.00,21.54,121.00,8.26,15.77,14.96,36.72,14.96,33.63,8.26,48.00,34.40,30.78,33.26,11.00,10.18,16.21,5.18,77.00,10.12,10.91,14.72,11.18,5.69,7.15,6.68,13.00,5.63,5.06,80.00,7.00,3.00,2.00,12.73,9.80,253.00,10.00,8.00,11.00,5.91,4.75,109.00,9.00,5.00,6.00,7.24,5.16,143.00,8.00,9.00,12.00,2.46,2.04,38.00,6.00,4.00,0.00,0,휴식 (Relax)
-11.50,-8.25,4.31,-0.69,-0.94,17.38,13.86,16.11,43.08,21.34,13.86,27.84,8.00,29.28,12.41,21.46,64.14,57.69,56.87,13.91,110.00,11.00,12.93,11.00,34.54,11.00,34.10,11.00,43.00,34.40,30.78,33.26,11.00,10.18,16.21,5.18,77.00,10.12,10.91,14.72,11.18,5.69,7.15,6.68,13.00,5.63,5.06,80.00,7.00,3.00,2.00,11.99,8.94,220.00,9.00,7.00,10.00,5.54,4.40,104.00,9.00,5.00,5.00,7.24,5.16,154.00,8.00,10.00,13.00,2.46,2.04,38.00,6.00,4.00,0.00,0,휴식 (Relax)
-3.00,-6.88,-1.69,-0.69,-0.94,12.95,14.78,23.91,46.65,14.02,6.12,24.50,0.00,39.22,24.07,42.78,46.67,35.70,75.58,14.04,88.00,11.00,12.93,11.00,34.54,11.00,34.10,11.00,43.00,34.40,30.78,33.26,11.00,10.18,16.21,5.18,77.00,10.12,10.91,14.72,11.18,5.69,7.15,6.68,13.00,5.57,5.00,88.00,7.00,4.00,2.00,11.59,8.77,198.00,8.00,6.00,9.00,5.54,4.40,110.00,10.00,6.00,5.00,7.24,5.16,143.00,7.00,9.00,12.00,2.46,2.04,38.00,6.00,4.00,0.00,0,휴식 (Relax)
-2.50,3.44,-1.69,0.00,-2.81,9.61,13.86,29.06,40.00,15.26,13.86,24.95,8.00,36.95,13.67,38.02,55.00,32.79,79.67,21.70,77.00,11.00,12.93,11.00,34.54,11.00,34.10,11.00,43.00,28.96,29.95,29.88,15.56,8.67,23.56,11.38,66.00,10.61,12.69,13.47,13.00,5.05,8.06,7.77,11.00,5.45,4.81,88.00,7.00,4.00,2.00,11.48,8.42,198.00,8.00,5.00,9.00,5.54,4.40,104.00,9.00,6.00,5.00,6.74,4.12,132.00,1.00,8.00,11.00,2.55,2.12,40.00,6.00,4.00,0.00,0,휴식 (Relax)
5.50,3.44,-1.31,0.00,-0.81,9.61,13.86,29.06,40.00,15.26,13.86,24.95,8.00,36.95,13.67,38.02,55.00,32.79,79.67,21.70,77.00,10.32,12.35,16.70,29.07,5.92,31.01,14.41,49.00,28.96,29.95,29.88,15.56,8.67,23.56,11.38,66.00,10.61,12.69,13.47,13.00,5.05,8.06,7.77,11.00,5.45,4.81,96.00,8.00,4.00,2.00,11.48,8.42,187.00,7.00,4.00,8.00,5.44,4.14,104.00,9.00,6.00,5.00,6.74,4.12,121.00,1.00,7.00,10.00,2.55,2.12,39.00,5.00,3.00,0.00,0,휴식 (Relax)
-9.50,-17.88,9.38,0.69,-2.50,10.74,3.31,13.07,53.67,5.68,19.31,21.21,24.00,30.82,13.35,28.61,64.14,25.17,89.72,22.41,88.00,12.40,8.86,14.26,31.62,2.29,32.95,19.12,54.00,19.48,19.05,39.24,11.00,3.57,19.05,22.09,55.00,9.59,11.54,18.42,8.60,9.53,4.78,8.83,6.00,5.81,4.88,104.00,8.00,4.00,3.00,12.22,9.28,176.00,7.00,3.00,8.00,5.83,4.53,99.00,9.00,5.00,5.00,6.11,3.87,110.00,6.00,6.00,9.00,2.57,2.00,38.00,4.00,2.00,0.00,0,휴식 (Relax)
13.50,5.50,3.38,11.00,-0.50,13.79,16.34,24.65,48.66,21.66,25.08,22.91,40.00,20.55,20.92,40.10,56.09,22.99,69.90,18.58,66.00,27.33,7.52,28.12,20.59,14.18,18.42,3.60,38.00,30.23,28.74,41.61,0.00,14.31,11.91,31.97,44.00,9.59,11.54,18.42,8.60,9.53,4.78,8.83,6.00,6.76,5.81,120.00,8.00,4.00,4.00,10.29,8.25,165.00,7.00,3.00,8.00,5.07,4.20,83.00,8.00,5.00,4.00,6.74,4.12,110.00,1.00,5.00,9.00,2.57,2.00,34.00,3.00,1.00,0.00,0,휴식 (Relax)
5.50,15.12,-1.94,11.00,2.69,13.79,16.34,24.65,48.66,21.66,25.08,22.91,40.00,35.94,27.92,21.83,77.78,17.06,67.41,29.06,44.00,16.54,9.55,22.16,30.68,20.36,7.93,9.43,27.00,30.23,28.74,41.61,0.00,14.31,11.91,31.97,44.00,7.88,8.54,16.16,11.18,6.98,2.25,8.50,3.00,6.76,5.81,120.00,7.00,5.00,4.00,10.91,8.42,165.00,6.00,3.00,8.00,4.62,3.67,78.00,8.00,4.00,3.00,6.74,4.12,99.00,1.00,5.00,8.00,2.26,1.72,34.00,4.00,1.00,0.00,0,휴식 (Relax)
5.00,4.12,-1.94,0.00,2.69,21.78,19.60,17.13,50.60,17.13,19.60,21.78,48.00,35.94,27.92,21.83,77.78,17.06,67.41,29.06,44.00,16.54,9.55,22.16,30.68,20.36,7.93,9.43,27.00,30.23,28.74,41.61,0.00,14.31,11.91,31.97,44.00,7.88,8.54,16.16,11.18,6.98,2.25,8.50,3.00,6.86,6.00,120.00,7.00,5.00,4.00,10.91,8.42,176.00,6.00,4.00,9.00,4.62,3.67,72.00,7.00,3.00,3.00,6.74,4.12,110.00,1.00,5.00,9.00,2.26,1.72,34.00,4.00,1.00,0.00,0,휴식 (Relax)
-3.00,4.12,-1.56,10.31,-0.12,21.78,19.60,17.13,50.60,17.13,19.60,21.78,48.00,35.94,27.92,21.83,77.78,17.06,67.41,29.06,44.00,14.44,14.29,27.77,25.08,14.37,11.91,15.03,21.00,37.30,19.05,35.13,11.00,24.53,19.05,33.60,55.00,5.14,9.15,16.46,8.60,7.95,4.93,6.89,0.00,6.86,6.00,128.00,8.00,5.00,4.00,10.91,8.42,176.00,6.00,4.00,9.00,4.51,3.40,66.00,6.00,3.00,3.00,7.24,5.16,110.00,5.00,5.00,9.00,2.15,1.45,32.00,4.00,1.00,0.00,0,휴식 (Relax)
4.50,4.12,-6.25,-11.69,-2.12,27.84,13.86,21.34,48.66,16.11,13.86,17.38,56.00,35.94,27.92,21.83,77.78,17.06,67.41,29.06,44.00,16.30,16.34,28.55,27.46,17.24,7.01,11.57,26.00,37.30,19.05,35.13,11.00,24.53,19.05,33.60,55.00,5.14,9.15,16.46,8.60,7.95,4.93,6.89,0.00,6.91,6.06,128.00,8.00,6.00,4.00,10.91,8.42,176.00,6.00,4.00,9.00,4.78,3.59,71.00,6.00,3.00,3.00,7.24,5.16,121.00,6.00,6.00,9.00,2.15,1.45,34.00,4.00,1.00,0.00,0,휴식 (Relax)
4.50,-6.19,4.38,9.62,-0.25,27.84,13.86,21.34,48.66,16.11,13.86,17.38,56.00,31.69,36.25,30.85,66.91,7.59,68.82,37.07,55.00,12.08,18.58,33.56,22.67,15.64,6.53,11.79,32.00,39.22,15.56,33.82,0.00,15.80,15.56,43.69,66.00,7.09,7.32,15.43,7.07,7.66,4.74,8.77,2.00,6.91,6.06,128.00,8.00,6.00,4.00,10.98,8.77,187.00,7.00,4.00,10.00,4.90,3.91,76.00,6.00,4.00,4.00,7.66,6.02,143.00,7.00,7.00,10.00,2.08,1.41,34.00,4.00,1.00,0.00,0,휴식 (Relax)
-10.50,-15.81,4.38,8.94,-0.25,29.62,28.46,25.86,48.66,14.00,9.27,32.76,40.00,41.21,58.03,49.91,73.79,29.25,51.80,16.72,33.00,12.08,18.58,33.56,22.67,15.64,6.53,11.79,32.00,39.91,24.60,44.31,11.00,26.43,24.60,32.70,55.00,7.09,7.32,15.43,7.07,7.66,4.74,8.77,2.00,7.33,6.50,128.00,8.00,5.00,4.00,11.65,9.71,165.00,6.00,3.00,10.00,4.90,3.91,76.00,6.00,4.00,4.00,7.99,6.70,132.00,6.00,6.00,9.00,2.08,1.41,28.00,3.00,0.00,0.00,0,휴식 (Relax)
4.50,4.12,4.38,-1.38,-1.75,21.60,25.08,10.75,32.98,29.99,16.34,48.57,24.00,19.06,45.45,60.02,46.67,50.23,18.83,16.93,0.00,12.08,18.58,33.56,22.67,15.64,6.53,11.79,32.00,43.37,14.58,38.57,15.56,30.53,35.20,23.22,44.00,7.13,8.05,8.14,5.83,5.89,3.34,4.03,6.00,6.91,6.06,136.00,9.00,6.00,5.00,9.43,7.91,143.00,6.00,3.00,10.00,4.90,3.91,60.00,5.00,3.00,3.00,7.66,6.02,121.00,6.00,5.00,9.00,1.52,1.09,24.00,0.00,0.00,0.00,0,휴식 (Relax)
-11.00,4.81,-6.94,-12.38,0.25,27.04,19.60,12.51,32.00,33.71,19.60,55.64,16.00,26.78,39.13,49.28,39.66,49.28,12.75,26.78,11.00,7.29,20.39,28.62,19.72,14.04,6.51,6.83,27.00,43.37,14.58,38.57,15.56,30.53,35.20,23.22,44.00,7.13,8.05,8.14,5.83,5.89,3.34,4.03,6.00,7.42,6.62,144.00,9.00,7.00,6.00,8.67,7.39,132.00,6.00,3.00,9.00,4.26,3.67,61.00,6.00,3.00,3.00,7.66,6.02,121.00,6.00,4.00,9.00,1.52,1.09,24.00,0.00,0.00,0.00,0,휴식 (Relax)
12.50,15.12,3.69,8.94,0.12,19.59,27.51,18.38,40.00,30.03,19.87,61.26,8.00,16.31,49.79,52.10,49.19,39.48,20.62,35.62,22.00,5.12,19.49,25.96,14.87,19.93,2.51,12.75,33.00,33.21,12.75,28.51,24.60,41.32,39.13,27.07,55.00,5.17,9.75,6.19,7.07,5.54,3.60,2.88,4.00,7.98,7.06,168.00,10.00,8.00,7.00,9.43,7.91,132.00,5.00,3.00,9.00,4.34,3.85,72.00,7.00,4.00,4.00,7.99,6.70,132.00,7.00,4.00,9.00,1.45,0.94,22.00,0.00,0.00,0.00,0,휴식 (Relax)
12.00,3.44,-2.31,-13.06,2.94,11.61,34.17,25.41,40.79,38.03,24.99,58.36,16.00,5.31,59.38,44.74,45.35,48.70,10.19,30.37,11.00,5.12,19.49,25.96,14.87,19.93,2.51,12.75,33.00,33.21,12.75,28.51,24.60,41.32,39.13,27.07,55.00,2.24,12.66,5.00,9.43,3.00,1.34,5.38,7.00,8.49,7.50,152.00,9.00,7.00,6.00,9.30,7.48,143.00,5.00,4.00,10.00,4.34,3.85,72.00,7.00,4.00,4.00,7.99,6.70,143.00,8.00,5.00,9.00,1.64,1.10,25.00,3.00,0.00,0.00,0,휴식 (Relax)
-19.50,-7.56,-6.62,-12.38,-0.06,19.38,32.98,26.82,48.66,41.91,32.98,59.57,24.00,5.31,59.38,44.74,45.35,48.70,10.19,30.37,11.00,7.53,30.49,16.60,10.00,27.82,13.51,10.49,22.00,43.76,23.56,18.28,34.79,50.69,29.95,31.45,44.00,2.24,12.66,5.00,9.43,3.00,1.34,5.38,7.00,9.37,8.06,176.00,10.00,7.00,7.00,9.30,7.48,154.00,6.00,4.00,11.00,4.57,3.91,71.00,6.00,4.00,4.00,8.59,7.22,143.00,8.00,5.00,9.00,1.64,1.10,28.00,4.00,1.00,0.00,0,휴식 (Relax)
-11.00,-7.56,-6.31,-11.69,-0.06,26.46,38.91,34.81,50.60,46.81,28.11,55.36,16.00,5.31,59.38,44.74,45.35,48.70,10.19,30.37,11.00,11.56,34.20,18.75,15.00,23.72,10.59,8.24,27.00,52.98,33.00,12.19,39.66,42.76,33.00,23.23,55.00,2.24,12.66,5.00,9.43,3.00,1.34,5.38,7.00,9.75,8.62,184.00,10.00,8.00,7.00,9.30,7.48,143.00,5.00,4.00,10.00,4.83,4.14,71.00,6.00,4.00,4.00,9.09,7.73,143.00,8.00,5.00,9.00,1.64,1.10,26.00,4.00,1.00,0.00,0,휴식 (Relax)
-10.50,-17.19,-1.31,-11.00,-2.06,32.53,46.86,38.92,43.08,39.35,27.35,61.77,24.00,24.65,80.55,28.10,24.60,39.12,31.83,48.95,11.00,11.56,34.20,18.75,15.00,23.72,10.59,8.24,27.00,60.36,38.11,22.04,31.11,39.16,38.11,33.37,44.00,2.24,12.66,5.00,9.43,3.00,1.34,5.38,7.00,10.09,9.19,176.00,9.00,7.00,7.00,10.27,8.77,154.00,5.00,4.00,11.00,4.83,4.14,76.00,6.00,4.00,4.00,9.53,8.25,143.00,4.00,5.00,9.00,1.64,1.10,26.00,4.00,1.00,0.00,0,휴식 (Relax)
-9.50,-15.81,-1.31,-20.62,-1.94,43.14,58.32,33.50,40.00,42.32,39.89,46.24,8.00,44.64,99.97,8.47,39.66,24.40,20.29,26.98,11.00,11.56,34.20,18.75,15.00,23.72,10.59,8.24,27.00,72.05,40.65,40.18,22.00,60.91,16.84,11.51,66.00,2.48,14.62,6.99,7.81,2.12,2.09,4.95,5.00,10.28,9.50,160.00,8.00,6.00,6.00,10.98,9.71,132.00,4.00,3.00,10.00,4.83,4.14,65.00,5.00,3.00,3.00,10.91,9.80,154.00,5.00,5.00,10.00,1.71,1.21,24.00,0.00,1.00,0.00,0,휴식 (Relax)
-9.50,-26.12,15.31,22.00,2.75,43.14,58.32,33.50,40.00,42.32,39.89,46.24,8.00,53.49,104.26,16.79,46.67,35.40,16.16,37.57,0.00,13.54,40.18,23.93,16.16,27.16,16.37,2.59,33.00,68.77,53.11,46.37,0.00,74.23,9.11,13.93,88.00,5.24,12.50,6.37,6.00,6.97,5.64,8.21,0.00,10.28,9.50,136.00,7.00,5.00,5.00,12.22,10.48,121.00,3.00,3.00,10.00,5.72,4.61,77.00,6.00,3.00,4.00,12.30,11.00,187.00,5.00,6.00,10.00,1.79,1.38,27.00,5.00,1.00,0.00,0,휴식 (Relax)
7.00,27.50,-10.69,-9.62,-4.94,44.57,53.71,29.30,40.79,35.12,44.49,39.42,0.00,44.77,113.43,14.50,64.14,47.88,14.23,56.89,22.00,9.35,29.74,15.81,31.58,24.42,28.38,13.49,49.00,63.52,31.11,24.73,22.00,68.65,31.11,35.90,110.00,0.54,10.90,1.55,11.00,10.42,8.90,13.15,5.00,9.75,9.00,144.00,8.00,5.00,6.00,14.02,11.69,165.00,4.00,3.00,10.00,6.25,4.70,98.00,6.00,4.00,5.00,12.22,11.00,220.00,7.00,7.00,11.00,2.19,1.59,32.00,2.00,2.00,0.00,0,휴식 (Relax)
14.50,6.19,4.94,12.38,3.06,46.24,61.52,24.64,48.66,36.84,44.44,35.69,8.00,43.90,102.85,5.24,59.24,45.09,17.65,65.12,33.00,10.21,28.76,11.03,31.00,19.52,30.57,19.10,55.00,63.52,31.11,24.73,22.00,68.65,31.11,35.90,110.00,0.54,10.90,1.55,11.00,10.42,8.90,13.15,5.00,10.28,9.50,152.00,8.00,5.00,6.00,13.45,11.09,176.00,4.00,4.00,10.00,6.38,5.08,114.00,7.00,5.00,6.00,12.22,11.00,231.00,8.00,7.00,11.00,2.19,1.59,40.00,3.00,3.00,0.00,0,휴식 (Relax)
-1.00,-14.44,4.56,11.69,0.25,41.62,55.03,32.60,48.00,44.82,39.75,36.61,16.00,41.89,84.10,25.37,80.08,66.62,30.21,57.68,11.00,15.21,24.59,5.89,37.00,25.00,32.95,15.00,49.00,72.22,33.00,16.29,33.00,76.06,33.00,28.88,99.00,2.51,7.93,3.69,8.00,7.48,7.56,15.63,8.00,10.15,9.12,160.00,8.00,5.00,7.00,13.87,11.69,198.00,5.00,4.00,11.00,6.48,5.37,114.00,7.00,5.00,6.00,12.58,11.69,220.00,8.00,6.00,10.00,2.05,1.47,40.00,3.00,4.00,0.00,0,휴식 (Relax)
6.50,17.88,4.19,11.69,3.06,48.28,56.55,31.07,40.00,48.83,32.03,41.75,24.00,45.61,86.64,21.61,77.78,73.08,41.10,61.06,0.00,21.20,18.63,9.81,37.48,25.57,27.26,17.34,55.00,72.22,33.00,16.29,33.00,76.06,33.00,28.88,99.00,1.38,9.99,2.56,8.54,6.21,5.12,17.58,11.00,10.28,9.50,160.00,8.00,6.00,7.00,14.49,12.38,231.00,6.00,5.00,12.00,6.56,5.56,109.00,7.00,4.00,6.00,12.58,11.69,198.00,7.00,5.00,9.00,2.19,1.59,41.00,3.00,5.00,0.00,0,휴식 (Relax)
6.50,17.19,-2.12,0.00,-0.06,48.28,56.55,31.07,40.00,48.83,32.03,41.75,24.00,54.37,82.04,31.67,88.68,78.84,35.43,53.79,11.00,25.96,14.97,14.25,32.56,20.67,31.87,17.19,50.00,83.08,22.92,18.66,22.00,65.06,43.53,33.19,88.00,3.24,10.36,4.52,6.71,4.72,7.12,16.94,9.00,10.28,9.50,160.00,8.00,6.00,7.00,15.05,13.06,220.00,5.00,5.00,11.00,6.34,5.25,104.00,7.00,4.00,5.00,12.30,11.00,187.00,5.00,5.00,9.00,2.14,1.47,42.00,8.00,6.00,0.00,0,휴식 (Relax)
-1.00,15.81,3.88,21.31,5.56,40.57,64.31,25.59,32.00,56.71,35.21,33.75,16.00,76.09,62.53,49.18,93.98,57.56,34.24,73.61,11.00,25.96,14.97,14.25,32.56,20.67,31.87,17.19,50.00,92.66,12.75,29.61,24.60,70.10,39.13,25.04,99.00,9.21,9.13,9.19,6.71,10.60,5.17,17.28,15.00,10.15,9.12,152.00,8.00,5.00,6.00,15.54,13.66,209.00,5.00,4.00,10.00,6.34,5.25,110.00,8.00,5.00,5.00,13.17,11.77,209.00,8.00,6.00,10.00,2.57,1.98,48.00,9.00,7.00,0.00,0,휴식 (Relax)
-1.50,24.06,-11.12,-10.31,-0.44,47.03,57.67,22.61,32.98,59.06,33.97,26.48,8.00,119.17,22.08,62.41,55.00,75.56,67.78,29.62,33.00,22.91,10.86,29.66,17.09,18.20,40.42,10.96,66.00,80.36,28.08,30.98,11.00,59.83,53.31,11.60,121.00,9.21,9.13,9.19,6.71,10.60,5.17,17.28,15.00,9.89,8.69,136.00,7.00,4.00,5.00,16.14,13.58,198.00,4.00,4.00,10.00,6.89,5.64,126.00,9.00,6.00,6.00,13.17,11.69,231.00,7.00,7.00,10.00,2.57,1.98,52.00,10.00,8.00,0.00,0,휴식 (Relax)
-8.50,-8.25,4.88,0.69,-2.44,40.24,62.20,38.47,48.66,48.67,24.71,20.49,8.00,109.98,25.50,68.43,62.23,71.27,78.27,20.14,44.00,22.91,10.86,29.66,17.09,18.20,40.42,10.96,66.00,80.36,28.08,30.98,11.00,59.83,53.31,11.60,121.00,9.21,9.13,9.19,6.71,10.60,5.17,17.28,15.00,9.99,8.62,128.00,6.00,3.00,4.00,16.27,14.09,231.00,5.00,5.00,11.00,6.89,5.64,131.00,9.00,6.00,6.00,13.17,11.69,231.00,7.00,7.00,10.00,2.57,1.98,52.00,10.00,8.00,0.00,0,휴식 (Relax)
-1.00,-28.19,4.19,0.00,-0.44,40.01,65.54,35.40,48.00,40.85,17.69,24.44,16.00,96.26,36.25,100.71,45.35,104.23,68.82,46.44,11.00,15.54,21.32,37.00,7.81,28.32,33.16,19.18,55.00,77.80,34.36,29.04,15.56,65.42,46.98,20.95,110.00,9.21,9.13,9.19,6.71,10.60,5.17,17.28,15.00,9.75,8.25,112.00,5.00,4.00,3.00,17.81,15.81,242.00,5.00,4.00,11.00,6.79,5.56,120.00,8.00,5.00,5.00,12.90,11.00,209.00,5.00,6.00,9.00,2.57,1.98,54.00,10.00,8.00,0.00,0,휴식 (Relax)
7.50,5.50,-1.44,-19.94,-2.31,43.21,57.94,29.64,40.00,40.36,9.94,31.66,24.00,98.14,38.26,103.66,34.79,100.09,62.13,39.37,22.00,20.55,16.56,31.71,13.00,29.39,34.75,25.15,49.00,99.33,1.89,12.52,24.60,55.12,64.11,53.95,77.00,9.53,9.55,8.54,6.08,10.51,5.89,19.23,13.00,9.15,7.62,120.00,6.00,4.00,3.00,17.39,15.12,264.00,6.00,5.00,11.00,6.72,5.37,120.00,8.00,5.00,5.00,13.59,11.69,209.00,6.00,6.00,9.00,2.64,2.05,53.00,9.00,7.00,0.00,0,휴식 (Relax)
-7.00,-4.81,-1.44,1.38,-0.12,63.68,37.73,10.24,46.65,19.72,29.67,7.66,0.00,104.91,34.84,95.64,39.66,92.17,72.94,42.95,11.00,20.55,16.56,31.71,13.00,29.39,34.75,25.15,49.00,89.01,12.89,21.18,22.00,44.95,75.11,64.25,66.00,11.61,8.63,5.61,3.16,13.28,3.08,16.29,16.00,8.43,7.12,104.00,4.00,4.00,3.00,17.38,15.04,264.00,6.00,6.00,11.00,6.72,5.37,115.00,8.00,5.00,5.00,13.40,11.17,231.00,7.00,7.00,10.00,2.55,1.81,52.00,8.00,7.00,0.00,0,휴식 (Relax)
0.00,-15.12,8.56,0.69,-2.00,47.71,41.89,11.58,33.94,7.74,39.67,9.49,16.00,114.81,26.62,85.55,49.19,102.50,64.27,43.66,22.00,6.91,12.87,16.67,28.44,44.07,20.50,16.49,65.00,78.01,22.08,30.45,33.00,53.56,67.78,56.44,77.00,13.53,7.12,4.66,4.24,12.02,5.03,17.96,14.00,7.48,6.00,104.00,2.00,5.00,3.00,17.77,15.64,275.00,6.00,6.00,12.00,6.87,5.56,126.00,9.00,5.00,6.00,13.17,10.48,231.00,7.00,7.00,10.00,2.60,1.88,54.00,3.00,7.00,0.00,0,휴식 (Relax)
-0.50,6.19,-12.12,-10.31,0.00,40.22,40.00,11.97,40.00,5.35,40.00,1.59,8.00,103.82,37.60,85.79,55.00,103.76,64.44,50.56,33.00,9.20,15.59,20.77,29.73,44.67,20.32,18.12,70.00,78.01,22.08,30.45,33.00,53.56,67.78,56.44,77.00,13.53,7.12,4.66,4.24,12.02,5.03,17.96,14.00,7.19,5.69,104.00,6.00,5.00,3.00,17.81,15.81,286.00,7.00,7.00,12.00,7.30,5.88,142.00,10.00,6.00,7.00,13.17,10.48,242.00,8.00,7.00,11.00,2.60,1.88,54.00,3.00,7.00,0.00,0,휴식 (Relax)
-8.50,4.81,3.50,20.62,2.69,40.22,40.00,11.97,40.00,5.35,40.00,1.59,8.00,83.51,55.90,67.04,73.79,122.95,49.40,31.65,11.00,9.13,9.62,22.44,24.17,39.75,25.21,23.01,76.00,60.11,31.23,10.51,0.00,21.93,95.86,67.14,110.00,9.51,11.27,2.30,8.54,7.14,7.68,17.47,19.00,7.19,5.69,112.00,6.00,5.00,3.00,17.38,15.04,286.00,7.00,7.00,12.00,7.34,5.94,158.00,11.00,7.00,8.00,13.95,11.34,264.00,7.00,7.00,11.00,2.64,2.05,57.00,9.00,7.00,0.00,0,휴식 (Relax)
6.50,13.75,-11.88,-13.06,2.38,37.16,24.27,6.74,28.84,11.25,55.89,15.46,8.00,66.08,73.25,42.48,66.00,100.35,82.06,63.92,44.00,7.97,18.51,12.44,22.00,31.52,35.00,32.93,86.00,61.50,33.98,8.35,11.00,31.05,85.53,58.41,99.00,8.86,13.73,7.30,11.31,9.15,2.74,16.01,14.00,7.05,5.88,128.00,7.00,6.00,4.00,17.17,14.44,286.00,7.00,6.00,12.00,7.93,6.64,157.00,11.00,7.00,8.00,13.03,10.83,253.00,7.00,7.00,11.00,2.64,2.16,52.00,8.00,6.00,0.00,0,휴식 (Relax)
-9.50,-9.62,4.81,9.62,-0.44,37.16,24.27,6.74,28.84,11.25,55.89,15.46,8.00,70.42,75.94,57.43,44.00,91.07,66.31,42.91,22.00,14.43,25.36,13.44,11.00,30.20,30.05,22.61,75.00,55.94,39.33,17.68,15.56,31.97,81.74,48.08,88.00,7.76,14.35,6.74,13.60,8.16,2.83,14.69,11.00,7.05,5.88,128.00,7.00,7.00,4.00,15.50,12.72,253.00,7.00,6.00,12.00,7.01,6.04,146.00,11.00,7.00,8.00,12.22,9.97,242.00,7.00,7.00,11.00,2.57,1.98,47.00,8.00,5.00,0.00,0,휴식 (Relax)
-1.00,-7.56,3.81,-12.38,-2.62,31.90,23.71,10.65,25.30,17.10,57.25,10.60,0.00,53.75,96.61,32.74,55.00,58.18,76.89,29.72,11.00,14.28,29.02,3.17,19.42,17.29,40.00,16.58,59.00,55.94,39.33,17.68,15.56,31.97,81.74,48.08,88.00,9.76,11.76,4.08,12.08,5.28,5.80,12.81,8.00,6.86,5.38,128.00,7.00,7.00,4.00,14.40,12.12,231.00,7.00,6.00,11.00,6.46,5.39,130.00,10.00,7.00,7.00,12.22,9.97,242.00,7.00,8.00,11.00,2.26,1.86,41.00,7.00,4.00,0.00,0,휴식 (Relax)
7.50,3.44,3.81,9.62,2.38,25.44,19.64,18.10,17.89,11.47,50.58,13.19,8.00,53.75,96.61,32.74,55.00,58.18,76.89,29.72,11.00,14.28,29.02,3.17,19.42,17.29,40.00,16.58,59.00,55.94,39.33,17.68,15.56,31.97,81.74,48.08,88.00,9.76,11.76,4.08,12.08,5.28,5.80,12.81,8.00,5.98,4.69,120.00,7.00,6.00,3.00,14.40,12.12,220.00,7.00,5.00,11.00,6.46,5.39,130.00,10.00,7.00,7.00,12.22,9.97,264.00,8.00,9.00,12.00,2.26,1.86,43.00,7.00,4.00,0.00,0,휴식 (Relax)
-0.50,12.38,-1.81,-11.00,-2.50,25.44,19.64,18.10,17.89,11.47,50.58,13.19,8.00,84.15,77.89,7.59,79.32,45.22,51.43,22.27,22.00,8.49,23.97,7.37,24.60,18.78,36.27,12.85,65.00,34.00,47.86,4.36,15.56,36.27,63.26,65.47,110.00,7.77,12.98,4.26,11.40,4.80,5.96,14.78,10.00,5.98,4.69,120.00,7.00,7.00,3.00,13.95,11.34,198.00,6.00,5.00,11.00,6.41,5.34,136.00,11.00,7.00,7.00,12.30,9.62,286.00,7.00,10.00,13.00,2.35,1.94,45.00,7.00,4.00,0.00,0,휴식 (Relax)
-7.50,-18.56,8.88,11.00,-2.19,9.54,7.41,8.72,32.98,27.29,43.19,19.18,24.00,51.32,73.51,25.70,101.41,17.03,63.52,41.71,55.00,13.49,25.21,5.01,27.20,15.71,37.48,9.49,70.00,34.00,47.86,4.36,15.56,36.27,63.26,65.47,110.00,4.04,13.59,3.34,16.28,9.65,3.05,9.96,5.00,5.98,4.69,128.00,9.00,7.00,3.00,14.40,12.12,231.00,7.00,6.00,12.00,6.72,5.61,141.00,11.00,7.00,8.00,12.30,9.62,297.00,8.00,10.00,13.00,2.32,1.78,42.00,6.00,3.00,0.00,0,휴식 (Relax)
8.50,-6.19,3.50,0.00,-0.19,9.54,7.41,8.72,32.98,27.29,43.19,19.18,24.00,34.06,61.72,38.76,116.93,38.76,41.91,34.06,33.00,19.12,23.30,10.71,32.25,21.67,32.26,14.78,64.00,34.00,47.86,4.36,15.56,36.27,63.26,65.47,110.00,4.04,13.59,3.34,16.28,9.65,3.05,9.96,5.00,5.98,4.69,136.00,10.00,8.00,4.00,14.01,11.69,242.00,7.00,7.00,13.00,6.75,5.62,140.00,10.00,7.00,8.00,12.30,9.62,286.00,8.00,10.00,13.00,2.32,1.78,38.00,5.00,2.00,0.00,0,휴식 (Relax)
8.00,5.50,3.50,1.38,0.19,15.54,2.54,15.50,40.79,33.85,35.69,20.51,16.00,32.23,51.59,37.16,110.00,37.16,51.59,32.23,44.00,19.12,23.30,10.71,32.25,21.67,32.26,14.78,64.00,34.53,26.39,17.83,15.56,44.55,41.51,72.23,88.00,8.16,8.08,2.83,10.44,7.90,2.95,9.11,1.00,6.32,5.00,136.00,4.00,8.00,4.00,13.47,11.00,242.00,8.00,6.00,13.00,6.75,5.62,124.00,9.00,6.00,7.00,10.91,8.59,253.00,11.00,9.00,12.00,1.78,1.36,32.00,2.00,2.00,0.00,0,휴식 (Relax)
-7.50,6.88,-7.81,-9.62,0.19,12.47,9.27,17.51,43.08,40.55,28.46,26.64,8.00,45.45,31.77,18.83,93.34,18.83,48.77,45.45,22.00,21.92,18.43,9.05,28.02,18.05,29.90,19.48,59.00,34.53,26.39,17.83,15.56,44.55,41.51,72.23,88.00,8.16,8.08,2.83,10.44,7.90,2.95,9.11,1.00,6.61,5.62,144.00,10.00,7.00,5.00,11.59,9.62,209.00,7.00,6.00,12.00,6.27,5.23,119.00,9.00,6.00,7.00,10.91,8.59,253.00,11.00,9.00,12.00,1.78,1.36,30.00,2.00,2.00,0.00,0,휴식 (Relax)
-7.50,6.19,-2.44,-8.94,2.88,12.47,9.27,17.51,43.08,40.55,28.46,26.64,8.00,35.19,35.67,29.47,85.91,9.08,57.67,55.99,11.00,20.94,22.08,14.88,25.08,12.51,32.54,24.40,53.00,44.75,31.44,13.41,11.00,33.73,40.91,82.73,77.00,3.67,11.47,6.87,5.83,12.09,5.70,5.75,4.00,6.61,5.62,136.00,9.00,7.00,5.00,11.65,9.71,187.00,7.00,5.00,11.00,6.24,5.26,124.00,9.00,7.00,7.00,11.15,9.20,253.00,11.00,9.00,12.00,1.87,1.44,31.00,5.00,2.00,0.00,0,휴식 (Relax)
-7.00,14.44,-2.06,12.38,2.69,18.55,13.69,21.30,40.79,32.90,33.05,34.53,0.00,8.88,48.56,57.38,59.24,42.02,17.44,13.69,55.00,23.78,22.76,18.84,19.72,13.41,26.76,21.35,59.00,33.77,20.62,24.07,22.00,33.49,49.79,93.67,66.00,3.50,12.24,9.19,5.00,12.63,2.88,8.23,1.00,6.86,6.12,128.00,9.00,6.00,5.00,10.08,8.42,165.00,6.00,4.00,11.00,6.20,5.19,118.00,8.00,7.00,7.00,11.59,9.80,253.00,11.00,8.00,12.00,1.99,1.68,29.00,5.00,2.00,0.00,0,휴식 (Relax)
9.00,13.75,-2.06,10.31,2.38,18.55,13.69,21.30,40.79,32.90,33.05,34.53,0.00,19.26,49.79,56.94,69.57,41.42,20.62,21.90,44.00,23.78,22.76,18.84,19.72,13.41,26.76,21.35,59.00,15.68,19.05,50.34,39.66,8.29,19.05,66.41,99.00,7.85,11.24,9.63,10.00,7.67,6.45,3.28,6.00,6.86,6.12,128.00,9.00,5.00,5.00,10.65,8.94,154.00,5.00,4.00,10.00,6.20,5.19,118.00,8.00,7.00,7.00,10.63,9.11,231.00,9.00,8.00,11.00,2.00,1.78,27.00,5.00,2.00,0.00,0,휴식 (Relax)
8.00,12.38,-6.75,-0.69,2.19,4.74,27.03,37.24,40.79,29.55,23.44,28.10,16.00,39.32,42.36,38.33,79.32,21.60,33.31,19.75,66.00,28.71,17.95,13.85,24.17,9.04,25.72,23.63,64.00,15.68,19.05,50.34,39.66,8.29,19.05,66.41,99.00,10.84,9.41,7.70,10.44,9.58,6.13,6.26,3.00,6.93,6.00,120.00,5.00,5.00,5.00,10.91,8.77,143.00,5.00,3.00,9.00,6.42,5.50,112.00,7.00,6.00,6.00,10.63,9.11,242.00,10.00,8.00,12.00,2.07,1.91,25.00,5.00,2.00,0.00,0,휴식 (Relax)
-7.50,0.00,4.56,-0.69,-0.94,9.51,19.87,35.50,48.66,22.58,27.51,30.91,24.00,58.10,28.74,21.33,62.23,42.01,11.91,14.60,44.00,33.58,13.69,12.38,22.56,9.25,22.95,19.73,59.00,15.68,19.05,50.34,39.66,8.29,19.05,66.41,99.00,12.68,7.48,5.74,8.54,10.45,4.69,4.58,5.00,7.19,6.56,136.00,9.00,5.00,6.00,9.53,6.88,132.00,2.00,3.00,9.00,6.07,5.19,102.00,7.00,6.00,6.00,10.63,9.11,231.00,10.00,7.00,11.00,1.95,1.80,26.00,6.00,2.00,0.00,0,휴식 (Relax)
0.50,-20.62,8.25,-1.38,-2.81,9.51,19.87,35.50,48.66,22.58,27.51,30.91,24.00,46.25,49.79,20.66,79.32,49.77,20.62,27.67,22.00,20.14,26.71,11.78,43.29,15.23,6.54,7.45,38.00,26.55,20.33,43.45,46.67,11.45,8.42,63.66,88.00,11.33,9.31,6.39,9.43,12.43,2.72,4.03,7.00,7.19,6.56,136.00,9.00,5.00,6.00,10.91,8.77,154.00,5.00,3.00,10.00,5.72,4.91,91.00,6.00,5.00,5.00,10.20,8.59,198.00,9.00,6.00,10.00,2.07,1.91,25.00,5.00,2.00,0.00,0,휴식 (Relax)
7.50,11.69,3.25,10.31,-0.62,16.34,17.89,25.08,64.50,25.08,17.89,16.34,8.00,47.39,40.91,28.70,85.91,44.50,31.44,35.25,11.00,20.14,26.71,11.78,43.29,15.23,6.54,7.45,38.00,16.23,26.56,38.37,39.66,12.76,4.56,58.53,77.00,10.86,10.86,5.03,7.07,11.99,5.49,4.13,4.00,7.19,6.56,128.00,8.00,4.00,5.00,11.32,9.20,176.00,6.00,3.00,10.00,5.72,4.91,80.00,5.00,5.00,4.00,9.09,7.73,176.00,9.00,5.00,10.00,2.00,1.78,27.00,5.00,2.00,0.00,0,휴식 (Relax)
7.50,11.69,-8.06,-22.00,2.38,16.34,17.89,25.08,64.50,25.08,17.89,16.34,8.00,47.39,40.91,28.70,85.91,44.50,31.44,35.25,11.00,22.76,24.55,7.06,38.33,10.74,1.79,7.00,33.00,12.19,37.56,27.38,49.19,21.05,6.44,66.83,88.00,10.86,10.86,5.03,7.07,11.99,5.49,4.13,4.00,7.19,6.56,112.00,7.00,3.00,4.00,11.32,9.20,154.00,5.00,3.00,9.00,5.12,4.55,75.00,5.00,5.00,4.00,10.29,8.25,187.00,6.00,5.00,10.00,2.00,1.78,27.00,5.00,2.00,0.00,0,휴식 (Relax)
-16.00,-10.31,-7.38,0.69,2.19,8.61,25.60,17.59,72.44,32.81,10.61,24.24,16.00,47.39,40.91,28.70,85.91,44.50,31.44,35.25,11.00,14.40,34.85,16.88,38.47,6.71,10.83,12.28,22.00,19.44,46.00,24.74,55.00,14.03,7.89,56.30,77.00,9.05,13.34,7.11,5.39,10.02,6.92,5.93,7.00,8.00,7.00,128.00,5.00,3.00,5.00,11.32,9.20,176.00,6.00,3.00,10.00,5.41,4.88,75.00,5.00,5.00,4.00,9.89,7.82,187.00,7.00,5.00,10.00,2.07,1.91,25.00,5.00,1.00,0.00,0,휴식 (Relax)
0.00,-10.31,3.62,-10.31,-0.94,8.61,25.60,17.59,72.44,32.81,10.61,24.24,16.00,47.39,40.91,28.70,85.91,44.50,31.44,35.25,11.00,14.40,34.85,16.88,38.47,6.71,10.83,12.28,22.00,19.44,46.00,24.74,55.00,14.03,7.89,56.30,77.00,7.56,15.29,6.90,3.61,9.10,4.93,4.07,5.00,8.00,7.00,136.00,5.00,3.00,6.00,11.32,9.20,165.00,5.00,3.00,9.00,5.41,4.88,86.00,6.00,5.00,5.00,9.89,7.82,176.00,7.00,5.00,10.00,1.95,1.80,23.00,5.00,0.00,0.00,0,휴식 (Relax)
0.50,-9.62,3.62,1.38,-0.75,9.04,28.46,25.26,64.50,26.37,9.27,29.82,24.00,58.17,33.31,36.14,79.32,34.60,42.36,43.09,22.00,14.40,34.85,16.88,38.47,6.71,10.83,12.28,22.00,30.33,40.65,33.61,49.19,24.61,16.84,46.74,66.00,10.37,13.93,9.70,3.16,6.10,3.17,1.10,2.00,7.73,6.62,128.00,8.00,3.00,6.00,11.59,9.97,154.00,5.00,2.00,8.00,5.41,4.88,80.00,5.00,4.00,5.00,9.43,7.39,165.00,7.00,5.00,10.00,1.89,1.69,18.00,4.00,0.00,0.00,0,휴식 (Relax)
0.50,-8.25,-7.06,-30.25,-2.75,9.04,28.46,25.26,64.50,26.37,9.27,29.82,24.00,79.81,42.36,35.97,62.23,38.63,33.31,22.90,0.00,9.63,32.81,13.37,43.42,10.74,14.33,14.19,27.00,50.72,22.00,37.59,69.57,29.82,22.00,61.94,88.00,10.37,13.93,9.70,3.16,6.10,3.17,1.10,2.00,7.73,6.62,120.00,7.00,2.00,6.00,11.34,9.97,121.00,4.00,1.00,7.00,5.67,5.19,80.00,5.00,3.00,5.00,11.99,9.28,176.00,7.00,5.00,10.00,1.89,1.69,20.00,4.00,0.00,0.00,0,휴식 (Relax)
-7.50,-8.94,4.25,3.44,-0.88,9.04,28.46,25.26,64.50,26.37,9.27,29.82,24.00,70.65,31.44,44.97,55.00,32.63,40.91,12.22,11.00,6.97,28.35,16.45,44.38,7.63,9.39,10.52,22.00,59.64,11.00,31.69,73.79,19.28,11.00,57.40,77.00,8.64,12.09,10.78,4.24,4.90,1.37,3.00,4.00,7.73,6.62,112.00,7.00,2.00,5.00,10.45,9.20,110.00,4.00,1.00,6.00,5.30,4.88,86.00,6.00,4.00,6.00,11.48,8.85,198.00,8.00,6.00,10.00,1.76,1.59,20.00,4.00,0.00,0.00,0,휴식 (Relax)
8.50,-8.94,4.25,13.75,-0.88,9.04,28.46,25.26,64.50,26.37,9.27,29.82,24.00,70.65,31.44,44.97,55.00,32.63,40.91,12.22,11.00,6.97,28.35,16.45,44.38,7.63,9.39,10.52,22.00,54.10,20.33,42.69,83.77,21.92,8.42,59.01,66.00,8.64,12.09,10.78,4.24,4.90,1.37,3.00,4.00,7.73,6.62,128.00,8.00,3.00,6.00,10.45,9.20,99.00,3.00,1.00,5.00,5.30,4.88,86.00,6.00,4.00,6.00,11.99,9.28,209.00,8.00,6.00,11.00,1.76,1.59,20.00,4.00,0.00,0.00,0,휴식 (Relax)
16.00,2.06,-1.38,2.75,-2.75,4.47,33.05,28.26,72.44,21.94,13.69,35.50,16.00,70.65,31.44,44.97,55.00,32.63,40.91,12.22,11.00,11.19,25.97,17.48,43.29,13.42,12.06,4.60,16.00,54.10,20.33,42.69,83.77,21.92,8.42,59.01,66.00,9.25,13.06,10.69,5.83,5.82,3.06,2.50,2.00,8.49,7.00,120.00,4.00,3.00,5.00,10.45,9.20,110.00,4.00,1.00,6.00,5.19,4.67,81.00,6.00,3.00,5.00,11.99,9.28,209.00,7.00,7.00,11.00,1.89,1.69,22.00,4.00,0.00,0.00,0,휴식 (Relax)
14.50,2.06,-1.69,-8.25,2.06,26.16,39.45,23.37,78.79,18.71,10.39,14.54,40.00,70.65,31.44,44.97,55.00,32.63,40.91,12.22,11.00,6.34,24.07,21.45,38.33,15.21,17.05,0.77,11.00,54.10,20.33,42.69,83.77,21.92,8.42,59.01,66.00,9.67,13.99,7.93,7.81,4.99,5.11,4.76,1.00,9.04,7.69,120.00,5.00,3.00,5.00,10.45,9.20,110.00,4.00,1.00,6.00,4.95,4.40,76.00,6.00,3.00,5.00,11.99,9.28,220.00,8.00,7.00,12.00,1.95,1.80,24.00,4.00,1.00,0.00,0,휴식 (Relax)
-9.50,-18.56,3.94,22.69,2.06,26.16,39.45,23.37,78.79,18.71,10.39,14.54,40.00,60.38,10.19,59.34,70.43,15.83,59.38,28.46,11.00,0.52,18.98,26.62,38.01,19.45,13.18,5.37,17.00,80.08,16.21,18.32,77.00,51.89,30.78,26.87,99.00,9.67,13.99,7.93,7.81,4.99,5.11,4.76,1.00,9.04,7.69,144.00,6.00,3.00,6.00,11.48,10.31,121.00,5.00,1.00,6.00,5.03,4.56,82.00,7.00,3.00,5.00,13.17,9.28,231.00,8.00,8.00,12.00,1.95,1.80,24.00,4.00,1.00,0.00,0,휴식 (Relax)
5.50,14.44,-2.06,1.38,-2.62,40.22,27.51,11.97,73.76,5.35,19.87,1.59,56.00,60.38,10.19,59.34,70.43,15.83,59.38,28.46,11.00,0.52,18.98,26.62,38.01,19.45,13.18,5.37,17.00,69.19,16.84,12.48,66.00,59.29,40.65,15.90,110.00,5.75,9.65,7.96,12.08,9.23,8.88,1.53,4.00,8.82,7.50,144.00,6.00,4.00,6.00,11.48,10.31,154.00,6.00,2.00,7.00,5.03,4.56,88.00,8.00,4.00,5.00,12.83,8.94,253.00,8.00,9.00,13.00,2.00,1.78,29.00,5.00,1.00,0.00,0,휴식 (Relax)
5.50,4.12,-2.06,2.06,-0.44,40.22,27.51,11.97,73.76,5.35,19.87,1.59,56.00,50.74,11.16,48.38,62.23,26.56,65.05,34.00,22.00,0.52,18.98,26.62,38.01,19.45,13.18,5.37,17.00,58.57,27.33,2.54,66.91,64.09,37.83,26.15,99.00,3.47,9.66,6.03,13.60,9.71,6.06,2.32,1.00,8.82,7.50,144.00,6.00,4.00,6.00,10.91,9.62,165.00,6.00,3.00,8.00,5.03,4.56,83.00,8.00,3.00,5.00,12.43,8.59,242.00,8.00,9.00,12.00,1.90,1.60,31.00,5.00,2.00,0.00,0,휴식 (Relax)
-2.00,4.81,-7.06,2.06,2.56,37.89,34.17,5.51,72.44,3.68,24.99,7.54,48.00,39.91,22.08,44.31,55.00,26.43,67.78,32.70,11.00,0.52,18.98,26.62,38.01,19.45,13.18,5.37,17.00,58.57,27.33,2.54,66.91,64.09,37.83,26.15,99.00,3.47,9.66,6.03,13.60,9.71,6.06,2.32,1.00,8.72,7.25,136.00,6.00,3.00,5.00,10.27,8.94,154.00,6.00,3.00,7.00,5.03,4.56,77.00,7.00,3.00,4.00,12.43,8.59,242.00,8.00,9.00,12.00,1.90,1.60,31.00,5.00,2.00,0.00,0,휴식 (Relax)
-2.50,15.12,-1.69,12.38,2.38,37.16,32.98,6.74,64.50,11.25,32.98,15.46,40.00,50.75,15.39,36.24,46.67,37.28,77.81,38.68,0.00,5.60,14.61,24.49,38.33,23.65,11.34,8.35,11.00,64.57,26.94,11.90,69.57,62.23,26.94,22.99,110.00,6.45,6.71,7.41,15.56,8.76,5.56,3.29,4.00,8.35,6.81,128.00,6.00,3.00,5.00,10.91,9.62,143.00,5.00,2.00,7.00,4.95,4.40,77.00,7.00,3.00,4.00,12.83,8.94,253.00,8.00,9.00,13.00,2.00,1.78,29.00,5.00,2.00,0.00,0,휴식 (Relax)
-2.50,-7.56,-1.00,11.69,2.06,37.16,32.98,6.74,64.50,11.25,32.98,15.46,40.00,60.44,22.08,26.09,39.66,33.11,67.78,29.36,11.00,16.23,3.83,13.69,27.46,28.95,9.24,3.92,22.00,68.21,36.48,17.63,80.08,52.69,36.48,22.09,99.00,11.32,5.89,6.60,12.53,5.22,9.55,2.24,1.00,8.35,6.81,120.00,5.00,3.00,5.00,10.08,8.94,132.00,5.00,3.00,7.00,4.33,3.75,72.00,7.00,3.00,4.00,13.17,9.28,242.00,8.00,8.00,12.00,1.95,1.80,27.00,5.00,2.00,0.00,0,휴식 (Relax)
5.50,4.12,9.69,11.69,1.88,37.16,32.98,6.74,64.50,11.25,32.98,15.46,40.00,53.74,11.16,27.51,31.11,42.48,65.05,18.93,22.00,12.22,8.66,17.18,28.79,33.77,8.66,7.67,27.00,68.21,36.48,17.63,80.08,52.69,36.48,22.09,99.00,13.95,8.61,4.47,10.00,8.21,6.77,2.45,2.00,8.35,6.81,128.00,6.00,3.00,5.00,9.43,8.25,143.00,6.00,4.00,8.00,4.83,4.14,72.00,7.00,3.00,4.00,13.17,9.28,209.00,7.00,7.00,11.00,2.00,1.88,24.00,4.00,2.00,0.00,0,휴식 (Relax)
13.00,25.44,-6.31,-11.00,1.88,29.99,39.19,8.03,65.97,18.48,39.19,15.18,48.00,56.79,19.68,36.49,39.66,51.39,71.96,7.93,33.00,12.22,8.66,17.18,28.79,33.77,8.66,7.67,27.00,65.04,42.36,6.68,69.57,56.06,33.31,18.08,88.00,13.95,8.61,4.47,10.00,8.21,6.77,2.45,2.00,8.89,7.38,112.00,5.00,2.00,4.00,10.80,8.94,143.00,5.00,4.00,8.00,4.83,4.14,88.00,8.00,4.00,5.00,12.30,8.25,209.00,2.00,6.00,11.00,2.00,1.88,24.00,4.00,2.00,0.00,0,휴식 (Relax)
-4.00,-7.56,8.69,20.62,-0.94,14.25,44.77,23.77,50.60,23.77,23.58,14.25,32.00,56.79,19.68,36.49,39.66,51.39,71.96,7.93,33.00,19.85,16.86,2.00,27.66,21.69,7.61,19.78,43.00,55.54,45.58,19.35,79.32,34.07,52.56,34.47,110.00,13.26,8.07,5.87,7.81,10.65,6.07,0.55,1.00,7.48,6.50,112.00,6.00,3.00,4.00,10.80,8.94,176.00,6.00,5.00,9.00,5.07,4.48,93.00,8.00,5.00,5.00,13.40,9.97,231.00,7.00,6.00,11.00,1.95,1.80,24.00,4.00,2.00,0.00,0,휴식 (Relax)
11.00,-7.56,3.69,-12.38,-5.62,2.65,43.57,32.22,48.00,9.59,34.26,19.97,48.00,56.79,19.68,36.49,39.66,51.39,71.96,7.93,33.00,19.85,16.86,2.00,27.66,21.69,7.61,19.78,43.00,55.54,45.58,19.35,79.32,34.07,52.56,34.47,110.00,15.37,12.13,5.84,12.08,7.28,10.24,4.54,4.00,7.94,7.00,128.00,7.00,4.00,5.00,10.80,8.94,176.00,6.00,5.00,9.00,5.07,4.48,98.00,8.00,6.00,5.00,13.40,9.97,253.00,8.00,6.00,11.00,2.42,2.08,29.00,4.00,2.00,0.00,0,휴식 (Relax)
2.50,-17.88,-1.94,-11.69,-0.62,10.50,39.05,30.08,56.00,9.86,34.10,12.95,40.00,65.15,30.36,47.41,34.79,45.91,73.28,10.56,44.00,13.92,20.56,6.70,29.55,23.33,10.56,18.25,37.00,65.36,55.90,26.36,85.91,27.20,49.40,24.20,99.00,15.37,12.13,5.84,12.08,7.28,10.24,4.54,4.00,7.86,6.81,136.00,7.00,5.00,5.00,11.59,9.62,187.00,6.00,5.00,10.00,5.01,4.30,93.00,8.00,5.00,4.00,13.73,10.48,220.00,8.00,5.00,10.00,2.42,2.08,32.00,4.00,3.00,0.00,0,휴식 (Relax)
-13.00,-6.88,-2.25,-13.06,2.06,3.68,46.81,37.89,56.57,7.54,40.60,5.51,32.00,65.15,30.36,47.41,34.79,45.91,73.28,10.56,44.00,18.33,15.56,7.96,25.06,20.15,15.56,20.26,32.00,43.38,37.60,12.08,70.43,6.11,64.44,18.84,77.00,10.51,10.73,10.68,16.76,2.83,9.32,3.39,1.00,8.43,7.38,144.00,8.00,4.00,6.00,11.59,9.62,198.00,6.00,6.00,11.00,4.71,4.06,82.00,7.00,5.00,3.00,11.15,9.45,187.00,8.00,5.00,9.00,2.38,2.06,33.00,5.00,3.00,0.00,0,휴식 (Relax)
-13.00,-6.88,3.75,-2.06,-2.81,3.68,46.81,37.89,56.57,7.54,40.60,5.51,32.00,65.15,30.36,47.41,34.79,45.91,73.28,10.56,44.00,18.33,15.56,7.96,25.06,20.15,15.56,20.26,32.00,43.38,37.60,12.08,70.43,6.11,64.44,18.84,77.00,12.50,9.53,10.46,16.28,4.05,10.92,5.10,3.00,8.43,7.38,128.00,7.00,4.00,5.00,11.59,9.62,198.00,6.00,6.00,11.00,4.71,4.06,88.00,8.00,5.00,3.00,11.15,9.45,187.00,7.00,4.00,9.00,2.48,2.19,38.00,6.00,4.00,0.00,0,휴식 (Relax)
3.00,-6.88,-1.88,-22.00,-7.38,3.68,46.81,37.89,56.57,7.54,40.60,5.51,32.00,65.15,30.36,47.41,34.79,45.91,73.28,10.56,44.00,17.13,16.67,8.93,20.00,22.08,16.67,14.54,38.00,71.44,28.96,24.63,56.09,26.98,50.49,18.39,110.00,18.99,3.12,17.11,23.19,3.87,4.27,1.92,4.00,8.43,7.38,136.00,8.00,4.00,6.00,11.59,9.62,187.00,5.00,6.00,10.00,4.64,3.83,88.00,8.00,6.00,3.00,12.30,9.62,198.00,4.00,5.00,9.00,3.12,2.62,41.00,6.00,3.00,0.00,0,휴식 (Relax)
-4.00,-6.19,3.75,0.00,2.31,18.30,40.60,22.41,40.79,16.30,46.81,20.81,48.00,72.34,19.68,47.59,33.00,36.15,71.96,19.78,55.00,16.03,19.88,3.06,17.09,18.68,22.29,8.54,44.00,71.44,28.96,24.63,56.09,26.98,50.49,18.39,110.00,15.51,8.12,14.69,23.09,8.37,5.66,6.74,9.00,8.00,7.00,144.00,9.00,5.00,6.00,11.65,9.71,187.00,5.00,6.00,10.00,4.71,4.06,94.00,9.00,7.00,3.00,12.30,9.62,209.00,4.00,5.00,9.00,3.12,2.60,46.00,6.00,4.00,1.00,0,휴식 (Relax)
-10.50,4.81,3.38,9.62,-0.50,42.04,24.00,31.90,51.22,30.04,24.00,12.35,24.00,72.34,19.68,47.59,33.00,36.15,71.96,19.78,55.00,14.79,25.86,6.62,11.66,24.66,17.18,14.19,38.00,66.75,50.49,39.87,56.09,45.63,28.96,24.18,88.00,16.56,6.41,12.67,20.10,9.17,8.66,9.45,12.00,7.86,6.81,128.00,8.00,4.00,5.00,11.65,9.71,176.00,5.00,5.00,10.00,4.75,4.20,88.00,8.00,6.00,3.00,12.22,9.97,187.00,6.00,4.00,9.00,3.06,2.50,49.00,7.00,5.00,1.00,0,휴식 (Relax)
4.50,-6.88,8.06,0.00,-6.88,28.92,39.45,18.26,40.00,44.14,10.39,26.86,8.00,73.32,25.26,41.82,34.79,35.19,60.98,18.68,44.00,13.61,29.81,10.93,14.87,23.52,18.59,10.68,43.00,63.00,35.20,24.97,34.79,63.37,14.58,45.16,66.00,19.76,13.63,3.97,23.32,17.57,7.08,7.26,2.00,7.47,6.50,128.00,8.00,5.00,5.00,10.91,9.11,154.00,5.00,5.00,10.00,5.12,4.55,87.00,7.00,6.00,3.00,11.00,8.25,176.00,3.00,5.00,9.00,3.48,2.80,51.00,5.00,4.00,1.00,0,휴식 (Relax)
12.00,-5.50,13.00,0.00,-4.69,26.64,46.34,22.35,46.65,44.91,12.51,18.93,16.00,64.46,34.36,31.61,56.09,18.31,46.98,35.87,22.00,16.48,36.84,20.14,29.15,12.18,29.37,22.05,26.00,63.00,35.20,24.97,34.79,63.37,14.58,45.16,66.00,20.53,16.50,6.15,25.94,15.60,4.21,5.40,5.00,8.00,7.00,136.00,8.00,5.00,5.00,10.29,8.25,143.00,5.00,5.00,9.00,6.07,5.25,93.00,7.00,6.00,3.00,11.00,8.25,176.00,3.00,5.00,9.00,3.65,3.05,51.00,5.00,5.00,1.00,0,휴식 (Relax)
-3.50,-4.81,1.62,0.00,0.31,25.89,44.64,14.92,43.08,52.76,13.52,12.79,24.00,58.41,45.35,20.95,59.24,29.23,45.35,24.89,33.00,19.33,36.52,19.96,27.46,18.16,23.46,18.83,32.00,63.00,35.20,24.97,34.79,63.37,14.58,45.16,66.00,20.53,16.50,6.15,25.94,15.60,4.21,5.40,5.00,7.98,6.94,144.00,8.00,6.00,6.00,10.27,7.99,143.00,5.00,5.00,9.00,6.00,5.08,99.00,7.00,6.00,4.00,11.00,8.25,176.00,3.00,5.00,9.00,3.65,3.05,53.00,6.00,5.00,1.00,0,휴식 (Relax)
4.00,6.19,-9.38,-30.94,-7.94,29.49,40.25,16.39,35.78,57.47,13.11,12.93,32.00,58.41,45.35,20.95,59.24,29.23,45.35,24.89,33.00,19.33,36.52,19.96,27.46,18.16,23.46,18.83,32.00,34.85,67.78,42.59,39.66,87.51,22.08,37.59,99.00,18.69,17.62,12.26,16.28,27.53,11.12,7.07,17.00,8.00,7.00,152.00,9.00,7.00,6.00,10.27,7.99,143.00,6.00,4.00,9.00,6.00,5.08,105.00,8.00,6.00,5.00,13.59,10.83,198.00,7.00,5.00,9.00,4.10,3.58,62.00,7.00,6.00,1.00,0,휴식 (Relax)
-4.00,-34.38,11.56,13.06,4.06,29.49,40.25,16.39,35.78,57.47,13.11,12.93,32.00,16.16,72.31,67.29,64.14,37.39,9.76,39.47,88.00,23.79,19.53,12.40,34.83,14.67,31.50,29.34,49.00,34.85,67.78,42.59,39.66,87.51,22.08,37.59,99.00,18.69,17.62,12.26,16.28,27.53,11.12,7.07,17.00,8.00,7.00,160.00,10.00,8.00,6.00,12.83,7.56,165.00,6.00,4.00,9.00,6.60,5.33,127.00,9.00,7.00,6.00,13.59,10.83,242.00,8.00,6.00,10.00,4.10,3.58,74.00,8.00,7.00,2.00,0,휴식 (Relax)
-11.50,-11.69,10.50,2.75,-0.62,21.69,47.42,24.05,28.84,65.43,20.95,6.72,24.00,14.94,74.30,74.64,73.79,40.29,6.71,28.47,77.00,32.42,13.31,29.11,49.19,29.48,14.52,13.59,32.00,23.86,67.41,31.78,34.79,76.70,27.92,47.09,110.00,16.28,13.28,7.57,20.00,23.96,13.70,10.57,22.00,8.47,7.50,160.00,9.00,8.00,6.00,13.17,7.91,176.00,5.00,5.00,9.00,7.00,5.62,116.00,6.00,6.00,5.00,13.19,10.31,253.00,8.00,7.00,11.00,3.97,3.42,79.00,9.00,8.00,2.00,0,휴식 (Relax)
12.00,30.94,-10.50,13.75,4.38,29.65,45.18,24.15,33.94,68.27,27.83,4.57,16.00,28.23,87.51,85.46,85.91,62.29,28.51,10.93,55.00,30.28,9.00,25.41,58.14,41.96,10.72,3.62,16.00,23.86,67.41,31.78,34.79,76.70,27.92,47.09,110.00,16.28,13.28,7.57,20.00,23.96,13.70,10.57,22.00,8.94,8.00,176.00,10.00,8.00,7.00,15.17,9.97,198.00,6.00,4.00,9.00,7.42,6.00,122.00,8.00,5.00,5.00,13.19,10.31,242.00,7.00,7.00,11.00,3.97,3.42,84.00,10.00,9.00,2.00,0,휴식 (Relax)
-3.00,10.31,-5.81,-8.25,-0.31,17.22,38.71,9.17,46.65,58.41,36.30,17.42,0.00,7.38,65.53,64.29,70.43,73.47,47.33,24.05,33.00,28.14,11.12,20.73,54.45,41.49,15.57,7.28,11.00,23.86,67.41,31.78,34.79,76.70,27.92,47.09,110.00,11.87,11.20,10.35,16.28,24.18,10.42,12.45,27.00,8.43,7.38,176.00,10.00,8.00,7.00,13.17,7.91,187.00,5.00,5.00,9.00,7.06,5.61,111.00,7.00,5.00,4.00,13.19,10.31,231.00,7.00,7.00,11.00,3.80,3.19,86.00,11.00,10.00,2.00,0,휴식 (Relax)
-3.00,-0.69,0.50,14.44,4.50,17.22,38.71,9.17,46.65,58.41,36.30,17.42,0.00,7.38,65.53,64.29,70.43,73.47,47.33,24.05,33.00,31.78,6.20,24.55,51.09,36.85,19.94,11.20,6.00,22.50,59.73,42.65,24.60,65.94,38.91,39.42,99.00,14.83,9.96,7.70,14.21,27.11,7.54,13.35,30.00,8.43,7.38,160.00,9.00,7.00,6.00,13.17,7.91,198.00,6.00,5.00,10.00,6.94,5.38,112.00,8.00,5.00,4.00,12.12,9.80,220.00,7.00,8.00,11.00,3.95,3.38,86.00,11.00,10.00,2.00,0,휴식 (Relax)
-2.00,-0.69,-5.12,-7.56,-0.69,25.21,23.44,19.89,33.94,57.01,27.03,28.95,16.00,7.38,65.53,64.29,70.43,73.47,47.33,24.05,33.00,37.54,3.30,23.85,46.67,41.36,18.79,8.88,12.00,22.50,59.73,42.65,24.60,65.94,38.91,39.42,99.00,17.75,7.45,8.75,12.04,25.51,10.32,13.63,27.00,7.75,6.50,152.00,9.00,7.00,6.00,13.17,7.91,187.00,6.00,4.00,9.00,7.06,5.73,112.00,8.00,6.00,4.00,12.12,9.80,242.00,8.00,9.00,12.00,3.85,3.19,86.00,11.00,11.00,2.00,0,휴식 (Relax)
6.00,8.94,-5.12,-7.56,-0.56,25.21,23.44,19.89,33.94,57.01,27.03,28.95,16.00,28.62,53.31,49.74,88.68,70.74,28.08,43.21,11.00,37.54,3.30,23.85,46.67,41.36,18.79,8.88,12.00,22.50,59.73,42.65,24.60,65.94,38.91,39.42,99.00,16.14,9.44,6.77,10.63,26.79,11.35,14.84,25.00,7.75,6.50,144.00,9.00,7.00,5.00,13.03,8.34,187.00,7.00,4.00,9.00,7.06,5.73,112.00,8.00,6.00,4.00,12.12,9.80,242.00,8.00,9.00,12.00,3.84,3.13,83.00,11.00,10.00,2.00,0,휴식 (Relax)
-2.50,8.25,0.50,13.06,4.44,17.22,21.68,23.63,28.84,52.00,34.55,28.17,8.00,38.55,43.19,56.77,94.63,60.58,39.02,36.06,22.00,32.49,2.87,28.44,42.64,47.33,12.80,6.88,6.00,6.11,37.83,62.67,24.60,84.84,27.33,53.61,77.00,16.14,9.44,6.77,10.63,26.79,11.35,14.84,25.00,7.33,6.12,152.00,10.00,8.00,5.00,13.19,8.94,187.00,7.00,4.00,9.00,6.94,5.38,112.00,8.00,5.00,4.00,12.43,9.71,253.00,8.00,8.00,12.00,3.84,3.13,83.00,11.00,10.00,2.00,0,휴식 (Relax)
-10.50,7.56,0.50,12.38,4.12,17.22,21.68,23.63,28.84,52.00,34.55,28.17,8.00,47.06,33.00,67.12,85.91,69.04,33.00,39.77,11.00,32.49,2.87,28.44,42.64,47.33,12.80,6.88,6.00,10.67,32.23,64.11,34.79,86.36,37.16,43.25,88.00,17.46,11.04,3.94,8.25,26.95,15.69,9.86,30.00,7.33,6.12,144.00,9.00,7.00,4.00,13.31,9.37,187.00,7.00,4.00,9.00,6.94,5.38,106.00,7.00,4.00,4.00,12.83,10.14,231.00,7.00,7.00,11.00,3.98,3.38,78.00,11.00,9.00,2.00,0,휴식 (Relax)
-2.00,27.50,-10.19,-10.31,-4.00,23.29,29.67,23.85,25.30,44.13,37.73,22.93,16.00,70.55,38.11,76.99,69.57,83.52,38.11,49.48,44.00,33.68,5.11,33.39,39.66,50.64,13.99,10.88,11.00,19.20,37.83,55.45,33.00,75.58,27.33,54.25,77.00,17.61,12.99,2.08,6.32,25.02,13.83,11.80,28.00,7.21,5.75,144.00,8.00,8.00,4.00,15.06,11.00,209.00,7.00,4.00,10.00,7.28,5.77,111.00,7.00,4.00,5.00,11.97,9.20,231.00,7.00,7.00,11.00,3.82,3.25,76.00,11.00,8.00,1.00,0,휴식 (Relax)
5.50,-5.50,-4.81,0.69,4.00,19.98,24.90,16.08,32.98,43.28,45.48,16.87,24.00,70.55,38.11,76.99,69.57,83.52,38.11,49.48,44.00,33.73,11.05,36.77,44.78,45.10,17.08,4.94,5.00,19.20,37.83,55.45,33.00,75.58,27.33,54.25,77.00,17.61,12.99,2.08,6.32,25.02,13.83,11.80,28.00,7.33,6.12,144.00,9.00,7.00,4.00,15.06,11.00,231.00,7.00,4.00,10.00,7.38,6.09,116.00,7.00,5.00,5.00,11.97,9.20,231.00,8.00,7.00,11.00,3.82,3.25,81.00,12.00,9.00,1.00,0,휴식 (Relax)
-10.50,-4.81,-4.44,1.38,1.00,19.98,24.90,16.08,32.98,43.28,45.48,16.87,24.00,69.33,29.81,87.64,66.91,82.65,47.51,38.63,33.00,32.50,15.57,34.24,48.01,45.35,11.12,10.90,11.00,18.98,29.95,55.86,34.79,70.29,23.56,47.18,88.00,17.61,12.99,2.08,6.32,25.02,13.83,11.80,28.00,7.33,6.12,144.00,9.00,8.00,4.00,15.05,10.91,220.00,6.00,4.00,9.00,7.47,6.31,111.00,7.00,5.00,5.00,11.59,8.77,220.00,8.00,7.00,10.00,3.82,3.25,77.00,11.00,9.00,1.00,0,휴식 (Relax)
-2.00,5.50,1.88,22.00,3.38,17.32,18.37,14.18,40.79,37.96,44.35,24.86,16.00,66.26,31.31,86.60,56.09,92.87,58.10,27.96,22.00,30.38,17.29,29.24,44.05,49.79,15.39,6.83,6.00,18.13,35.20,75.68,56.09,48.32,14.58,47.51,110.00,10.26,11.19,12.06,10.00,15.11,5.89,14.17,38.00,7.21,5.75,144.00,9.00,8.00,4.00,15.06,11.00,231.00,7.00,4.00,10.00,7.29,6.00,111.00,8.00,4.00,5.00,12.90,9.62,242.00,6.00,7.00,11.00,3.60,3.05,78.00,11.00,10.00,1.00,0,휴식 (Relax)
-8.50,4.81,2.56,10.31,-4.62,21.52,5.74,12.49,43.08,33.20,33.45,8.43,40.00,60.76,28.08,96.73,55.00,85.74,53.31,37.14,33.00,24.18,17.61,26.56,38.01,42.20,15.74,14.88,17.00,23.08,34.49,83.74,59.24,52.94,22.47,41.86,99.00,10.26,11.19,12.06,10.00,15.11,5.89,14.17,38.00,6.61,4.75,136.00,8.00,8.00,3.00,15.05,10.91,231.00,7.00,4.00,10.00,6.52,5.31,100.00,8.00,4.00,4.00,13.17,10.40,253.00,9.00,8.00,12.00,3.60,3.05,81.00,11.00,10.00,1.00,0,휴식 (Relax)
22.00,4.12,-7.75,-21.31,-1.50,25.15,19.60,28.04,65.97,17.69,19.60,28.78,64.00,53.09,20.62,104.69,66.00,80.83,49.79,31.38,22.00,17.85,16.34,36.81,48.10,38.10,7.01,11.09,6.00,26.73,51.39,92.84,80.08,43.36,44.24,29.77,77.00,12.21,13.14,13.53,11.66,13.53,7.71,12.21,36.00,8.72,6.75,160.00,8.00,8.00,4.00,15.00,10.66,220.00,6.00,3.00,9.00,6.79,5.59,100.00,8.00,3.00,4.00,14.27,11.86,253.00,8.00,7.00,12.00,3.62,3.12,75.00,10.00,10.00,1.00,0,휴식 (Relax)
-1.50,-16.50,7.25,8.94,2.75,18.60,13.86,22.63,64.50,9.83,13.86,36.73,72.00,73.33,42.36,113.78,69.57,58.83,33.31,38.05,0.00,31.18,28.35,29.10,45.01,22.37,9.39,23.33,10.00,26.05,13.67,49.71,80.08,7.04,79.67,34.02,33.00,2.24,7.13,6.24,20.59,6.24,16.65,2.24,24.00,8.59,6.25,176.00,8.00,9.00,5.00,15.56,11.69,198.00,6.00,2.00,9.00,6.75,5.62,94.00,8.00,4.00,4.00,11.81,10.31,242.00,10.00,7.00,12.00,2.97,2.75,68.00,12.00,9.00,0.00,0,휴식 (Relax)
-1.50,-7.56,-2.69,8.94,2.75,18.60,13.86,22.63,64.50,9.83,13.86,36.73,72.00,40.41,26.56,81.14,39.66,55.81,4.56,68.13,33.00,14.20,12.88,18.93,28.02,18.38,23.58,40.32,27.00,26.05,13.67,49.71,80.08,7.04,79.67,34.02,33.00,2.24,7.13,6.24,20.59,6.24,16.65,2.24,24.00,8.59,6.25,168.00,8.00,8.00,5.00,12.12,9.37,187.00,6.00,3.00,9.00,5.86,4.90,105.00,9.00,5.00,5.00,11.81,10.31,231.00,9.00,6.00,11.00,2.97,2.75,63.00,11.00,8.00,0.00,0,휴식 (Relax)
5.50,12.38,4.00,-2.06,-2.25,34.58,9.27,7.36,64.50,13.88,28.46,29.35,56.00,19.20,55.08,80.67,64.14,24.21,36.36,35.35,0.00,5.16,15.75,8.01,29.73,7.85,21.26,30.32,16.00,26.05,13.67,49.71,80.08,7.04,79.67,34.02,33.00,2.24,7.13,6.24,20.59,6.24,16.65,2.24,24.00,8.35,6.44,152.00,8.00,7.00,4.00,11.59,8.59,165.00,6.00,2.00,9.00,4.66,4.12,89.00,9.00,5.00,4.00,11.81,10.31,231.00,9.00,5.00,11.00,2.97,2.75,63.00,11.00,7.00,0.00,0,휴식 (Relax)
6.00,2.75,-7.00,-22.00,-1.94,27.49,13.69,10.05,56.57,14.10,33.05,31.50,48.00,25.31,36.36,59.28,56.09,16.59,55.08,20.26,22.00,5.16,15.75,8.01,29.73,7.85,21.26,30.32,16.00,45.94,20.62,31.29,112.18,35.22,49.79,38.45,0.00,3.05,5.69,9.37,23.43,6.33,12.07,7.12,19.00,7.75,5.75,136.00,7.00,7.00,3.00,9.92,7.56,154.00,6.00,3.00,9.00,4.66,4.12,95.00,10.00,6.00,5.00,12.90,11.00,231.00,6.00,4.00,11.00,2.93,2.69,58.00,8.00,6.00,0.00,0,휴식 (Relax)
-9.50,-17.88,-2.00,-11.00,-0.06,23.66,21.68,9.99,58.24,20.84,34.55,26.43,56.00,38.86,40.80,48.81,77.78,6.15,51.88,30.16,0.00,5.16,15.75,8.01,29.73,7.85,21.26,30.32,16.00,45.94,20.62,31.29,112.18,35.22,49.79,38.45,0.00,1.95,4.31,7.70,25.00,5.17,10.17,9.07,17.00,8.11,6.06,152.00,8.00,7.00,4.00,10.91,8.77,165.00,6.00,3.00,9.00,4.66,4.12,94.00,9.00,6.00,5.00,12.90,11.00,220.00,5.00,4.00,11.00,2.88,2.57,55.00,9.00,5.00,0.00,0,휴식 (Relax)
-9.00,-17.19,-1.62,0.69,2.94,25.25,27.71,7.21,65.97,15.75,27.71,33.32,48.00,45.35,51.39,57.66,80.08,12.77,44.24,27.33,11.00,10.08,17.72,13.94,24.17,1.90,17.72,30.27,22.00,56.77,25.43,40.89,101.41,30.52,44.89,37.87,11.00,1.95,4.31,7.70,25.00,5.17,10.17,9.07,17.00,8.43,6.38,152.00,8.00,7.00,4.00,11.65,9.54,165.00,6.00,3.00,9.00,4.57,3.91,88.00,8.00,6.00,5.00,12.58,10.48,209.00,7.00,4.00,11.00,2.88,2.57,53.00,9.00,5.00,0.00,0,휴식 (Relax)
-1.00,-6.19,8.69,0.00,-2.06,25.25,27.71,7.21,65.97,15.75,27.71,33.32,48.00,45.35,51.39,57.66,80.08,12.77,44.24,27.33,11.00,0.94,23.35,15.24,22.02,9.96,23.35,28.98,33.00,47.75,28.96,42.83,99.61,19.62,50.49,36.18,22.00,1.95,4.31,7.70,25.00,5.17,10.17,9.07,17.00,8.43,6.38,152.00,7.00,6.00,4.00,11.65,9.54,165.00,5.00,3.00,9.00,5.07,4.48,99.00,9.00,6.00,6.00,12.30,9.62,209.00,4.00,4.00,11.00,2.88,2.57,58.00,10.00,6.00,0.00,0,휴식 (Relax)
14.50,4.81,-2.31,-11.00,-0.19,18.27,32.98,14.43,73.76,8.35,32.98,25.85,56.00,45.35,51.39,57.66,80.08,12.77,44.24,27.33,11.00,0.94,23.35,15.24,22.02,9.96,23.35,28.98,33.00,47.75,28.96,42.83,99.61,19.62,50.49,36.18,22.00,3.78,4.42,8.88,23.85,3.88,8.39,8.93,19.00,9.04,7.06,160.00,7.00,6.00,5.00,11.65,9.54,176.00,6.00,3.00,10.00,5.07,4.48,104.00,9.00,7.00,7.00,12.30,9.62,198.00,3.00,4.00,11.00,2.83,2.46,55.00,9.00,7.00,0.00,0,휴식 (Relax)
-1.50,4.81,-6.62,0.69,2.81,18.27,32.98,14.43,73.76,8.35,32.98,25.85,56.00,45.35,51.39,57.66,80.08,12.77,44.24,27.33,11.00,10.49,17.09,16.03,25.06,18.70,17.09,37.14,22.00,50.19,20.11,39.00,99.00,16.00,42.11,44.67,11.00,3.78,4.42,8.88,23.85,3.88,8.39,8.93,19.00,9.04,7.06,168.00,8.00,6.00,6.00,11.65,9.54,176.00,6.00,3.00,10.00,5.27,4.53,109.00,9.00,7.00,7.00,11.97,9.20,209.00,8.00,5.00,12.00,2.83,2.46,58.00,10.00,7.00,0.00,0,휴식 (Relax)
-17.00,-5.50,-1.25,-8.94,2.81,26.18,28.11,21.84,81.58,1.99,38.91,29.69,48.00,37.90,40.80,52.49,83.77,12.20,51.88,38.31,22.00,16.30,20.32,22.03,20.00,14.80,15.59,31.34,28.00,53.58,29.81,58.33,77.00,37.37,47.51,23.63,33.00,3.78,4.42,8.88,23.85,3.88,8.39,8.93,19.00,9.75,7.38,176.00,8.00,6.00,7.00,11.67,9.62,165.00,7.00,2.00,10.00,5.15,4.22,103.00,8.00,7.00,6.00,11.81,9.45,198.00,8.00,5.00,12.00,2.83,2.46,50.00,9.00,6.00,0.00,0,휴식 (Relax)
-8.50,-3.44,-1.56,1.38,-0.50,33.38,30.98,27.69,80.40,9.90,30.98,28.93,56.00,19.34,19.05,79.23,55.00,20.80,19.05,13.26,11.00,12.48,15.34,20.76,23.35,18.16,12.27,26.37,33.00,55.03,18.83,51.09,77.78,44.12,45.45,12.64,44.00,7.95,8.11,8.64,19.85,3.07,8.62,4.57,14.00,9.99,7.69,176.00,7.00,6.00,7.00,9.30,7.99,132.00,6.00,2.00,9.00,4.91,4.02,98.00,8.00,7.00,6.00,11.59,8.77,198.00,8.00,6.00,12.00,2.50,2.19,45.00,9.00,5.00,0.00,0,휴식 (Relax)
15.00,17.19,-1.56,1.38,-0.31,28.32,23.44,30.69,88.36,15.24,27.03,33.11,64.00,34.16,19.05,63.77,70.43,35.71,19.05,27.42,33.00,12.48,15.34,20.76,23.35,18.16,12.27,26.37,33.00,55.03,18.83,51.09,77.78,44.12,45.45,12.64,44.00,6.16,7.81,5.69,21.93,3.11,7.81,2.01,11.00,10.54,8.38,184.00,7.00,5.00,7.00,10.27,8.94,154.00,7.00,2.00,10.00,4.91,4.02,98.00,8.00,7.00,6.00,11.59,8.77,198.00,8.00,6.00,12.00,2.42,2.02,42.00,8.00,4.00,0.00,0,휴식 (Relax)
-1.50,5.50,-6.25,1.38,-0.31,27.97,16.34,38.65,88.00,18.75,25.08,26.47,56.00,45.05,20.33,69.84,64.14,39.13,8.42,16.52,22.00,13.27,16.67,17.03,27.20,19.11,16.67,29.68,28.00,55.03,18.83,51.09,77.78,44.12,45.45,12.64,44.00,6.16,7.81,5.69,21.93,3.11,7.81,2.01,11.00,10.28,8.06,192.00,8.00,5.00,8.00,10.29,8.94,154.00,6.00,3.00,10.00,5.15,4.22,97.00,7.00,7.00,6.00,11.59,8.77,176.00,8.00,5.00,11.00,2.42,2.02,39.00,7.00,3.00,0.00,0,휴식 (Relax)
-9.00,-4.81,4.75,13.06,5.50,25.20,19.60,37.07,96.00,26.55,19.60,18.92,48.00,34.57,26.56,59.28,73.79,50.11,4.56,6.25,11.00,13.27,16.67,17.03,27.20,19.11,16.67,29.68,28.00,44.20,12.75,49.57,66.91,41.42,39.13,12.86,55.00,5.91,4.83,4.83,24.21,6.05,10.80,5.01,14.00,10.54,8.38,192.00,8.00,4.00,8.00,10.27,8.94,165.00,7.00,3.00,11.00,5.15,4.22,108.00,8.00,8.00,7.00,10.45,8.34,176.00,8.00,5.00,11.00,2.72,2.25,37.00,7.00,2.00,0.00,0,휴식 (Relax)
-1.50,16.50,4.75,13.06,-2.69,30.44,22.38,30.23,96.33,29.26,11.79,10.92,40.00,43.30,15.56,61.21,79.32,54.82,15.56,9.27,0.00,13.27,16.67,17.03,27.20,19.11,16.67,29.68,28.00,44.20,12.75,49.57,66.91,41.42,39.13,12.86,55.00,6.00,3.88,2.36,22.47,6.03,9.11,2.44,11.00,10.28,8.06,168.00,7.00,4.00,7.00,11.00,9.62,187.00,8.00,4.00,12.00,5.15,4.22,97.00,7.00,7.00,6.00,10.45,8.34,143.00,7.00,4.00,10.00,2.42,2.11,42.00,8.00,3.00,0.00,0,휴식 (Relax)
22.50,15.81,-1.56,11.00,2.00,30.44,22.38,30.23,96.33,29.26,11.79,10.92,40.00,50.37,11.00,52.93,88.68,62.05,11.00,2.74,11.00,17.29,21.41,15.98,24.60,16.28,12.14,28.16,23.00,74.00,45.45,34.13,34.79,25.57,18.83,21.19,22.00,7.39,8.27,2.80,18.44,1.31,8.93,6.31,16.00,10.28,8.06,168.00,7.00,4.00,7.00,11.65,10.31,165.00,7.00,3.00,11.00,4.91,4.02,87.00,7.00,6.00,5.00,9.53,6.88,110.00,0.00,4.00,9.00,2.37,2.12,42.00,8.00,4.00,0.00,0,휴식 (Relax)
-1.50,-6.88,-0.88,-9.62,-2.69,30.44,22.38,30.23,96.33,29.26,11.79,10.92,40.00,55.52,20.33,42.98,83.77,52.05,8.42,10.27,0.00,6.63,18.79,7.76,34.79,5.41,3.30,23.55,12.00,59.42,35.20,17.86,46.67,46.74,14.58,41.36,0.00,7.89,4.38,4.06,15.65,3.85,7.67,10.51,21.00,10.28,8.06,192.00,8.00,5.00,8.00,10.91,9.62,176.00,8.00,3.00,11.00,4.27,3.19,76.00,6.00,5.00,4.00,9.43,7.39,132.00,7.00,4.00,10.00,2.42,2.11,47.00,9.00,5.00,0.00,0,휴식 (Relax)
-9.00,-17.19,4.75,12.38,2.31,23.39,21.78,22.48,104.31,29.67,17.13,10.71,32.00,54.58,11.00,43.31,93.98,54.07,11.00,21.21,11.00,12.63,14.96,13.75,37.12,7.56,8.26,20.65,6.00,59.42,35.20,17.86,46.67,46.74,14.58,41.36,0.00,7.89,4.38,4.06,15.65,3.85,7.67,10.51,21.00,10.54,8.38,192.00,7.00,5.00,8.00,11.65,10.31,165.00,7.00,2.00,11.00,4.44,3.59,76.00,6.00,4.00,4.00,9.43,7.39,143.00,8.00,5.00,10.00,2.42,2.11,47.00,9.00,6.00,0.00,0,휴식 (Relax)
-8.00,5.50,-0.88,1.38,-2.69,19.35,35.69,17.46,104.31,14.39,2.54,11.74,48.00,59.81,15.56,34.41,90.71,43.15,15.56,12.38,0.00,7.42,20.84,12.92,31.91,13.31,13.92,17.00,0.00,59.42,35.20,17.86,46.67,46.74,14.58,41.36,0.00,7.89,4.38,4.06,15.65,3.85,7.67,10.51,21.00,10.58,8.00,192.00,2.00,5.00,8.00,11.00,9.62,176.00,8.00,3.00,11.00,4.27,3.19,71.00,6.00,4.00,3.00,9.43,7.39,132.00,7.00,5.00,10.00,2.42,2.11,52.00,10.00,7.00,0.00,0,휴식 (Relax)
8.00,5.50,4.44,0.00,-0.81,19.35,35.69,17.46,104.31,14.39,2.54,11.74,48.00,59.81,15.56,34.41,90.71,43.15,15.56,12.38,0.00,15.87,13.44,4.09,27.66,18.69,21.66,10.68,11.00,50.71,20.33,14.20,34.79,25.47,8.42,48.85,22.00,5.89,2.46,6.03,13.89,1.97,6.32,10.63,23.00,10.58,8.00,192.00,2.00,5.00,8.00,11.00,9.62,154.00,7.00,3.00,10.00,4.15,3.40,72.00,7.00,5.00,3.00,7.78,5.50,121.00,2.00,5.00,9.00,2.32,2.02,52.00,10.00,8.00,0.00,0,휴식 (Relax)
7.00,4.12,-1.56,-11.00,-2.69,11.74,33.05,14.39,106.73,17.46,13.69,19.35,32.00,38.55,15.56,39.58,88.00,34.58,15.56,24.33,22.00,15.87,13.44,4.09,27.66,18.69,21.66,10.68,11.00,50.71,20.33,14.20,34.79,25.47,8.42,48.85,22.00,7.75,3.75,5.31,13.00,2.95,6.93,10.35,25.00,10.54,8.38,192.00,7.00,5.00,8.00,10.20,8.77,154.00,7.00,3.00,10.00,4.15,3.40,78.00,8.00,6.00,3.00,7.78,5.50,121.00,2.00,5.00,9.00,2.42,2.11,51.00,9.00,7.00,0.00,0,휴식 (Relax)
-1.50,2.75,-1.56,10.31,2.31,11.79,39.45,22.38,98.95,22.38,10.39,11.79,40.00,16.66,37.56,31.40,66.00,56.08,6.44,20.76,0.00,15.87,13.44,4.09,27.66,18.69,21.66,10.68,11.00,41.88,30.78,3.76,39.66,35.76,16.21,47.72,33.00,7.75,3.75,5.31,13.00,2.95,6.93,10.35,25.00,10.28,8.06,192.00,8.00,5.00,8.00,9.12,7.56,143.00,7.00,3.00,9.00,4.15,3.40,67.00,7.00,5.00,2.00,8.22,6.45,143.00,5.00,6.00,10.00,2.42,2.11,51.00,9.00,7.00,0.00,0,휴식 (Relax)
-9.00,2.06,4.75,9.62,-2.69,14.51,31.65,20.47,101.19,29.87,16.67,3.81,48.00,9.26,46.00,21.26,66.91,51.10,7.89,15.47,11.00,16.80,8.84,3.83,22.80,17.36,16.79,5.80,16.00,31.63,40.65,12.45,49.19,29.93,16.84,52.81,22.00,7.75,3.75,5.31,13.00,2.95,6.93,10.35,25.00,10.54,8.38,184.00,7.00,4.00,7.00,8.88,6.96,132.00,6.00,3.00,8.00,3.58,2.97,62.00,7.00,5.00,1.00,8.59,7.22,132.00,5.00,5.00,9.00,2.42,2.11,54.00,10.00,8.00,0.00,0,휴식 (Relax)
15.00,2.06,4.38,-12.38,-5.38,14.51,31.65,20.47,101.19,29.87,16.67,3.81,48.00,9.26,46.00,21.26,66.91,51.10,7.89,15.47,11.00,13.57,12.00,8.61,22.00,22.75,12.00,0.58,22.00,31.63,40.65,12.45,49.19,29.93,16.84,52.81,22.00,9.49,1.40,6.55,17.72,7.85,7.07,15.15,20.00,10.54,8.38,192.00,7.00,5.00,7.00,8.88,6.96,132.00,6.00,3.00,8.00,3.74,3.28,57.00,7.00,4.00,1.00,8.59,7.22,143.00,6.00,4.00,9.00,2.78,2.34,54.00,9.00,8.00,0.00,0,휴식 (Relax)
-1.00,-8.25,-1.94,-11.69,-0.19,14.51,31.65,20.47,101.19,29.87,16.67,3.81,48.00,11.04,53.11,20.88,69.57,41.24,9.11,25.41,0.00,10.63,13.00,12.65,17.00,19.54,13.00,4.61,17.00,42.11,46.00,20.11,59.24,20.11,7.89,42.11,33.00,10.57,3.76,5.66,17.12,6.88,4.45,12.20,23.00,10.54,8.38,192.00,8.00,5.00,7.00,9.12,7.56,132.00,6.00,3.00,8.00,3.36,3.05,58.00,8.00,4.00,1.00,9.09,7.73,132.00,6.00,3.00,8.00,2.70,2.13,59.00,9.00,9.00,0.00,0,휴식 (Relax)
-9.50,-28.88,8.38,8.94,2.81,6.96,25.08,24.32,93.64,24.32,16.34,6.96,56.00,27.46,75.11,13.19,90.71,44.30,12.89,3.65,22.00,7.75,13.46,15.83,20.25,16.40,19.97,7.24,28.00,28.11,24.60,12.56,70.43,32.44,24.60,20.49,55.00,10.57,3.76,5.66,17.12,6.88,4.45,12.20,23.00,9.89,8.06,192.00,8.00,5.00,7.00,11.59,9.28,154.00,6.00,3.00,9.00,3.97,3.58,69.00,9.00,5.00,2.00,8.88,7.82,143.00,7.00,3.00,8.00,2.70,2.13,59.00,9.00,9.00,0.00,0,휴식 (Relax)
-2.00,13.75,-7.31,8.25,-0.19,6.50,17.13,32.12,91.21,21.46,21.78,1.29,48.00,19.59,61.55,32.68,98.39,32.68,32.42,19.59,44.00,9.15,15.76,18.84,16.28,12.00,24.93,12.22,33.00,29.95,15.56,23.56,79.32,23.56,15.56,29.95,44.00,10.57,3.76,5.66,17.12,6.88,4.45,12.20,23.00,9.59,7.75,176.00,7.00,5.00,6.00,11.99,9.28,176.00,6.00,3.00,9.00,4.34,3.85,85.00,10.00,6.00,3.00,9.12,8.25,143.00,7.00,3.00,8.00,2.70,2.13,62.00,10.00,10.00,0.00,0,휴식 (Relax)
14.00,24.06,-7.00,-13.06,-0.19,6.50,17.13,32.12,91.21,21.46,21.78,1.29,48.00,26.85,65.21,40.53,108.34,43.64,28.81,9.40,33.00,13.54,20.71,23.58,20.00,16.39,22.16,8.01,28.00,23.89,19.05,22.15,85.91,29.34,19.05,38.28,33.00,10.57,3.76,5.66,17.12,6.88,4.45,12.20,23.00,9.59,7.75,176.00,7.00,5.00,6.00,13.03,9.71,176.00,6.00,3.00,9.00,4.66,4.12,80.00,10.00,5.00,3.00,9.70,8.94,165.00,8.00,3.00,9.00,2.70,2.13,62.00,10.00,10.00,0.00,0,휴식 (Relax)
5.50,2.06,3.31,8.25,-0.19,14.43,19.87,25.85,93.64,18.27,27.51,8.35,40.00,26.85,65.21,40.53,108.34,43.64,28.81,9.40,33.00,2.54,13.82,24.96,16.03,19.47,27.40,10.37,17.00,32.66,23.56,11.95,77.78,39.91,29.95,45.14,22.00,10.57,3.76,5.66,17.12,6.88,4.45,12.20,23.00,9.68,8.12,176.00,7.00,5.00,6.00,13.03,9.71,187.00,5.00,3.00,9.00,4.38,3.94,80.00,10.00,5.00,3.00,9.92,9.28,176.00,8.00,4.00,9.00,2.70,2.13,56.00,9.00,9.00,0.00,0,휴식 (Relax)
-3.00,-8.94,3.31,18.56,5.81,22.19,27.71,18.81,86.16,12.57,27.71,4.41,48.00,26.85,65.21,40.53,108.34,43.64,28.81,9.40,33.00,2.54,13.82,24.96,16.03,19.47,27.40,10.37,17.00,43.57,34.49,7.37,85.91,39.76,22.47,42.31,33.00,10.57,3.76,5.66,17.12,6.88,4.45,12.20,23.00,9.33,7.75,176.00,8.00,5.00,6.00,13.03,9.71,176.00,5.00,3.00,9.00,4.38,3.94,80.00,10.00,5.00,3.00,10.80,9.88,187.00,8.00,4.00,10.00,2.70,2.13,54.00,9.00,8.00,0.00,0,휴식 (Relax)
-3.00,13.06,-7.00,-13.06,-2.19,22.19,27.71,18.81,86.16,12.57,27.71,4.41,48.00,26.85,65.21,40.53,108.34,43.64,28.81,9.40,33.00,12.99,5.60,22.63,18.87,30.31,20.12,0.66,28.00,23.28,22.47,14.83,73.79,61.26,34.49,52.40,55.00,10.57,3.76,5.66,17.12,6.88,4.45,12.20,23.00,9.33,7.75,152.00,7.00,4.00,5.00,13.03,9.71,198.00,6.00,4.00,10.00,4.66,4.12,85.00,10.00,5.00,4.00,11.15,10.31,220.00,9.00,5.00,11.00,2.70,2.13,57.00,9.00,8.00,0.00,0,휴식 (Relax)
-1.50,2.75,-2.00,-1.38,0.00,21.83,33.45,6.65,64.50,29.18,5.74,20.48,24.00,21.65,70.41,34.72,98.39,45.82,29.16,9.91,44.00,12.99,5.60,22.63,18.87,30.31,20.12,0.66,28.00,19.03,29.95,20.90,83.77,56.14,23.56,43.10,44.00,8.43,6.61,3.23,20.10,4.07,5.69,9.27,20.00,7.60,6.06,128.00,6.00,4.00,4.00,12.60,9.28,187.00,5.00,5.00,10.00,4.66,4.12,90.00,10.00,6.00,4.00,10.91,9.80,209.00,8.00,5.00,11.00,2.60,1.88,54.00,5.00,8.00,0.00,0,휴식 (Relax)
-1.50,2.06,-2.00,-12.38,-0.12,21.83,33.45,6.65,64.50,29.18,5.74,20.48,24.00,23.14,59.73,45.71,93.98,38.17,38.91,16.54,55.00,12.99,5.60,22.63,18.87,30.31,20.12,0.66,28.00,19.03,29.95,20.90,83.77,56.14,23.56,43.10,44.00,9.20,5.00,2.94,20.40,4.65,7.68,7.29,18.00,7.60,6.06,120.00,6.00,4.00,4.00,12.43,8.59,176.00,5.00,4.00,9.00,4.66,4.12,84.00,9.00,5.00,4.00,10.91,9.80,198.00,7.00,5.00,11.00,2.55,1.81,49.00,7.00,7.00,0.00,0,휴식 (Relax)
-9.50,-9.62,4.00,-0.69,0.06,21.83,33.45,6.65,64.50,29.18,5.74,20.48,24.00,25.47,50.49,50.71,83.77,48.85,28.96,14.20,44.00,12.99,5.60,22.63,18.87,30.31,20.12,0.66,28.00,27.11,37.83,9.92,73.79,66.46,27.33,32.28,33.00,9.38,5.92,5.69,17.46,7.64,10.15,5.03,15.00,7.60,6.06,128.00,6.00,4.00,4.00,11.59,7.56,165.00,5.00,4.00,9.00,4.66,4.12,84.00,9.00,4.00,4.00,10.63,9.11,198.00,6.00,6.00,11.00,2.44,1.59,44.00,4.00,6.00,0.00,0,휴식 (Relax)
-9.50,-8.94,3.62,9.62,-0.06,21.83,33.45,6.65,64.50,29.18,5.74,20.48,24.00,27.35,53.31,57.70,80.08,51.93,28.08,22.05,33.00,15.01,6.80,28.63,16.49,30.08,17.83,5.84,22.00,16.49,38.11,17.88,79.32,68.10,38.11,24.06,22.00,8.39,6.65,4.69,17.12,8.48,10.85,4.86,13.00,7.60,6.06,112.00,5.00,4.00,3.00,11.81,8.34,165.00,5.00,4.00,9.00,4.73,4.25,78.00,8.00,3.00,4.00,10.91,9.80,209.00,7.00,6.00,12.00,2.38,1.48,42.00,6.00,6.00,0.00,0,휴식 (Relax)
14.00,22.69,3.62,-1.38,-0.06,15.67,38.63,7.04,71.55,26.80,6.63,22.86,32.00,19.91,65.53,38.05,101.41,39.45,47.33,43.85,11.00,15.01,6.80,28.63,16.49,30.08,17.83,5.84,22.00,16.49,38.11,17.88,79.32,68.10,38.11,24.06,22.00,8.39,6.65,4.69,17.12,8.48,10.85,4.86,13.00,8.25,6.75,136.00,6.00,4.00,4.00,13.17,9.20,198.00,6.00,4.00,10.00,4.73,4.25,72.00,7.00,3.00,4.00,10.91,9.80,209.00,8.00,6.00,12.00,2.38,1.48,40.00,6.00,5.00,0.00,0,휴식 (Relax)
6.00,11.00,-7.06,-12.38,-4.88,15.67,38.63,7.04,71.55,26.80,6.63,22.86,32.00,20.32,76.52,41.57,99.61,50.45,37.49,33.50,22.00,10.23,11.15,32.41,16.03,33.99,13.02,3.68,27.00,16.49,38.11,17.88,79.32,68.10,38.11,24.06,22.00,11.24,4.31,2.36,17.03,11.42,13.62,3.11,16.00,8.25,6.75,136.00,5.00,5.00,4.00,13.47,9.62,209.00,3.00,5.00,11.00,5.03,4.56,83.00,8.00,3.00,5.00,10.91,9.80,198.00,7.00,6.00,12.00,2.64,1.69,40.00,4.00,4.00,0.00,0,휴식 (Relax)
-9.50,-30.94,3.56,-0.69,0.31,17.20,33.45,15.01,78.79,32.14,5.74,15.44,24.00,40.12,56.79,8.86,132.46,70.15,43.09,25.53,55.00,16.23,6.07,27.35,22.02,33.12,8.07,8.44,33.00,25.20,33.00,26.13,70.43,70.72,33.00,30.69,11.00,14.22,5.45,4.78,14.04,11.17,10.97,5.49,13.00,8.59,7.06,144.00,6.00,4.00,5.00,15.66,12.20,253.00,7.00,5.00,12.00,5.09,4.63,88.00,8.00,4.00,6.00,10.63,9.11,209.00,7.00,7.00,13.00,2.52,1.59,40.00,4.00,5.00,0.00,0,휴식 (Relax)
-9.50,-18.56,8.25,0.00,0.19,17.20,33.45,15.01,78.79,32.14,5.74,15.44,24.00,61.99,67.78,22.86,132.46,80.08,22.08,18.84,33.00,20.91,7.86,28.91,22.80,37.88,9.49,3.44,28.00,33.16,39.02,26.50,64.14,59.75,43.19,20.87,22.00,12.49,3.48,3.61,14.32,13.07,10.67,7.49,11.00,8.59,7.06,120.00,5.00,3.00,4.00,16.37,13.49,264.00,7.00,6.00,13.00,5.44,4.91,93.00,8.00,4.00,6.00,10.29,8.25,187.00,4.00,7.00,12.00,2.48,1.43,37.00,4.00,4.00,0.00,0,휴식 (Relax)
7.00,13.75,-7.06,-11.00,-0.12,16.23,40.25,10.49,71.55,24.15,13.11,8.22,16.00,51.60,56.87,16.94,143.42,90.88,12.41,20.20,22.00,14.44,3.26,17.91,33.54,45.64,12.78,7.94,17.00,33.16,39.02,26.50,64.14,59.75,43.19,20.87,22.00,10.45,2.88,7.94,9.49,10.64,8.23,3.24,16.00,7.94,6.38,120.00,5.00,3.00,4.00,16.73,14.09,286.00,7.00,6.00,13.00,5.67,5.19,103.00,8.00,4.00,7.00,10.29,8.25,198.00,4.00,7.00,13.00,2.15,1.09,32.00,4.00,4.00,0.00,0,휴식 (Relax)
6.50,2.06,-2.06,9.62,-0.12,19.92,32.65,18.47,75.47,21.90,18.49,7.89,8.00,44.29,48.56,26.30,144.68,89.19,17.44,22.90,33.00,14.44,3.26,17.91,33.54,45.64,12.78,7.94,17.00,37.02,26.39,46.75,56.09,48.69,41.51,42.63,0.00,10.45,2.88,7.94,9.49,10.64,8.23,3.24,16.00,8.11,6.88,112.00,5.00,2.00,4.00,16.60,13.58,275.00,7.00,6.00,13.00,5.67,5.19,97.00,7.00,4.00,6.00,10.20,8.59,198.00,6.00,8.00,13.00,2.15,1.09,29.00,3.00,3.00,0.00,0,휴식 (Relax)
-9.50,-10.31,-1.38,-0.69,0.06,19.92,32.65,18.47,75.47,21.90,18.49,7.89,8.00,44.42,53.31,44.99,122.98,70.49,28.08,15.14,11.00,21.56,10.72,26.92,22.80,34.70,9.00,18.08,6.00,29.44,23.37,46.99,45.35,37.71,50.99,52.57,11.00,9.17,2.37,9.64,6.71,8.08,11.15,4.20,13.00,8.11,6.88,120.00,6.00,2.00,5.00,14.79,11.86,242.00,7.00,6.00,13.00,5.19,4.67,81.00,6.00,4.00,5.00,9.89,7.82,209.00,7.00,9.00,14.00,2.01,0.86,26.00,3.00,3.00,0.00,0,휴식 (Relax)
-16.50,-19.25,3.94,-10.31,-4.62,4.45,30.98,31.55,85.04,13.70,30.98,8.78,24.00,35.91,25.26,56.22,132.91,45.61,60.98,34.83,22.00,11.28,11.22,19.77,27.80,30.88,9.59,27.65,5.00,15.60,16.21,68.51,45.35,51.41,30.78,40.21,11.00,7.13,7.28,14.45,6.32,8.38,9.33,5.50,18.00,9.15,7.62,112.00,5.00,1.00,4.00,15.31,12.72,242.00,7.00,5.00,13.00,5.03,4.56,87.00,7.00,4.00,5.00,9.89,7.73,198.00,10.00,8.00,14.00,2.34,1.36,31.00,4.00,3.00,0.00,0,휴식 (Relax)
15.50,4.12,13.56,0.00,-4.31,4.45,30.98,31.55,85.04,13.70,30.98,8.78,24.00,37.79,3.49,77.72,113.25,39.21,49.07,25.96,0.00,10.88,33.04,37.59,17.00,17.45,24.94,20.00,17.00,23.61,23.56,63.30,34.79,49.02,29.95,41.78,22.00,6.41,11.60,16.05,11.18,12.50,7.44,2.26,13.00,9.15,7.62,136.00,6.00,2.00,5.00,13.95,11.52,242.00,8.00,6.00,13.00,5.85,4.88,87.00,6.00,4.00,5.00,9.53,6.88,187.00,2.00,9.00,14.00,2.59,1.78,31.00,4.00,3.00,0.00,0,휴식 (Relax)
0.00,-16.50,2.56,-9.62,0.69,3.81,23.11,29.87,80.00,20.47,35.47,14.51,32.00,43.55,18.83,85.12,104.36,60.31,45.45,27.79,22.00,10.88,33.04,37.59,17.00,17.45,24.94,20.00,17.00,4.52,3.49,50.72,34.79,28.56,49.07,58.03,44.00,6.41,11.60,16.05,11.18,12.50,7.44,2.26,13.00,8.94,7.00,144.00,5.00,3.00,6.00,14.55,12.38,253.00,8.00,6.00,13.00,5.85,4.88,98.00,6.00,5.00,6.00,9.43,7.22,187.00,11.00,9.00,14.00,2.59,1.78,30.00,5.00,2.00,0.00,0,휴식 (Relax)
0.00,4.81,-3.06,13.06,1.06,3.81,23.11,29.87,80.00,20.47,35.47,14.51,32.00,43.54,12.75,92.67,93.98,67.32,39.13,30.93,33.00,8.60,33.14,40.10,18.03,21.29,23.32,15.65,11.00,8.96,12.75,39.73,24.60,37.75,39.13,47.32,33.00,6.10,10.75,10.49,5.39,12.12,1.56,4.67,7.00,8.94,7.00,144.00,5.00,3.00,6.00,14.54,12.29,253.00,8.00,6.00,13.00,5.87,4.94,93.00,6.00,4.00,5.00,7.99,6.70,176.00,11.00,9.00,14.00,1.95,1.59,22.00,4.00,1.00,0.00,0,휴식 (Relax)
0.00,-4.81,2.25,1.38,0.94,3.81,23.11,29.87,80.00,20.47,35.47,14.51,32.00,37.82,19.05,73.00,103.77,61.66,19.05,39.23,55.00,11.70,25.53,29.19,28.64,20.13,31.12,7.88,0.00,8.02,6.44,44.56,31.11,38.23,37.56,36.46,22.00,6.30,12.07,10.51,5.00,10.51,2.07,6.30,5.00,8.94,7.00,144.00,5.00,3.00,6.00,14.01,11.69,253.00,9.00,7.00,13.00,5.52,4.53,94.00,7.00,5.00,5.00,7.66,6.02,176.00,10.00,9.00,14.00,1.95,1.52,20.00,4.00,1.00,0.00,0,휴식 (Relax)
7.50,16.50,-8.44,-8.94,0.94,6.40,19.87,27.16,86.53,16.26,27.51,15.39,40.00,43.14,20.33,72.35,113.25,51.26,8.42,43.51,66.00,10.77,30.47,30.78,28.02,16.11,36.08,5.75,5.00,5.84,7.89,51.65,39.66,29.65,46.00,27.84,11.00,6.30,12.07,10.51,5.00,10.51,2.07,6.30,5.00,9.15,7.62,152.00,7.00,3.00,6.00,14.55,12.38,275.00,10.00,8.00,14.00,5.85,4.88,105.00,8.00,6.00,6.00,7.99,6.70,176.00,10.00,8.00,14.00,1.95,1.52,20.00,4.00,1.00,0.00,0,휴식 (Relax)
-0.50,5.50,2.19,1.38,0.94,6.40,19.87,27.16,86.53,16.26,27.51,15.39,40.00,43.14,20.33,72.35,113.25,51.26,8.42,43.51,66.00,9.90,25.93,35.24,22.02,11.04,40.07,6.18,11.00,10.29,12.41,41.70,34.79,19.94,56.87,25.72,0.00,6.30,12.07,10.51,5.00,10.51,2.07,6.30,5.00,9.15,7.62,152.00,8.00,4.00,6.00,14.55,12.38,275.00,9.00,9.00,14.00,5.81,4.73,110.00,8.00,7.00,7.00,7.66,6.02,176.00,10.00,9.00,14.00,1.95,1.52,20.00,4.00,1.00,0.00,0,휴식 (Relax)
-1.00,-5.50,-3.44,11.69,6.56,14.25,12.25,23.77,80.00,23.77,29.56,14.25,48.00,43.14,20.33,72.35,113.25,51.26,8.42,43.51,66.00,12.74,26.61,30.13,23.09,14.05,40.52,9.41,17.00,21.23,23.37,44.19,45.35,20.64,50.99,23.64,11.00,12.27,13.48,13.50,11.00,5.05,6.35,9.25,11.00,8.89,7.25,152.00,8.00,4.00,6.00,14.55,12.38,286.00,10.00,9.00,15.00,5.85,4.88,116.00,9.00,8.00,7.00,8.22,6.45,176.00,10.00,8.00,14.00,2.57,1.66,26.00,4.00,1.00,0.00,0,휴식 (Relax)
-9.00,4.81,-3.06,1.38,-1.31,14.25,12.25,23.77,80.00,23.77,29.56,14.25,48.00,53.92,26.56,77.07,108.34,40.27,4.56,50.99,55.00,18.31,23.98,31.91,17.46,8.60,44.35,8.52,11.00,11.30,18.03,33.20,44.00,14.42,55.34,22.32,22.00,10.39,14.24,11.63,11.18,3.50,8.19,11.15,13.00,8.89,7.25,136.00,7.00,3.00,5.00,14.54,12.29,264.00,10.00,9.00,15.00,5.87,4.94,116.00,9.00,8.00,7.00,7.66,6.02,176.00,10.00,9.00,14.00,2.59,1.78,34.00,5.00,2.00,0.00,0,휴식 (Relax)
7.50,-4.12,-2.69,-29.56,-4.00,11.33,11.79,17.16,73.76,31.04,22.38,20.14,40.00,31.75,42.36,44.46,79.32,42.17,33.31,82.78,22.00,24.29,18.73,37.91,16.03,9.63,38.35,7.19,17.00,28.70,44.89,35.25,77.00,47.39,25.43,44.50,11.00,7.69,19.05,12.67,16.12,4.69,7.57,6.20,8.00,8.23,6.62,144.00,8.00,4.00,6.00,12.83,11.00,264.00,11.00,10.00,15.00,5.86,4.90,105.00,8.00,7.00,6.00,10.80,8.42,198.00,10.00,8.00,14.00,2.78,2.12,32.00,4.00,1.00,0.00,0,휴식 (Relax)
0.00,-13.06,7.31,13.06,0.69,15.87,10.61,21.14,68.82,26.14,25.60,12.41,48.00,45.70,75.25,50.12,66.91,9.55,29.52,50.67,55.00,12.10,34.55,35.06,1.00,12.42,28.64,16.07,33.00,6.83,26.56,14.02,80.08,59.79,4.56,66.41,33.00,8.85,14.99,7.67,17.46,5.59,12.06,3.43,3.00,8.00,6.00,136.00,4.00,5.00,5.00,12.43,10.57,231.00,10.00,9.00,15.00,5.83,4.94,105.00,8.00,7.00,6.00,11.15,8.34,231.00,10.00,9.00,14.00,2.59,1.78,32.00,4.00,2.00,0.00,0,휴식 (Relax)
-0.50,-13.75,2.31,12.38,0.69,8.78,16.34,13.70,62.48,31.55,25.08,4.45,56.00,35.70,68.45,39.22,56.09,14.04,40.07,42.78,66.00,12.10,34.55,35.06,1.00,12.42,28.64,16.07,33.00,6.68,28.74,18.08,90.71,65.04,11.91,56.06,22.00,8.85,14.99,7.67,17.46,5.59,12.06,3.43,3.00,7.73,5.69,136.00,8.00,5.00,5.00,11.34,9.97,220.00,10.00,9.00,14.00,5.83,4.94,105.00,8.00,7.00,6.00,11.59,8.77,231.00,10.00,9.00,14.00,2.59,1.78,32.00,4.00,2.00,0.00,0,휴식 (Relax)
6.50,17.19,-3.00,11.69,0.69,7.89,32.17,21.90,53.67,18.47,37.38,19.92,40.00,4.26,81.17,44.91,59.24,21.09,20.71,61.74,33.00,13.93,37.41,28.78,11.05,23.36,19.30,16.24,22.00,17.56,39.13,28.79,88.68,54.25,12.75,64.40,33.00,8.85,14.99,7.67,17.46,5.59,12.06,3.43,3.00,7.60,5.88,128.00,8.00,5.00,4.00,11.65,10.31,220.00,10.00,8.00,14.00,5.57,4.62,95.00,8.00,6.00,5.00,11.97,9.20,220.00,9.00,8.00,13.00,2.59,1.78,32.00,4.00,2.00,0.00,0,휴식 (Relax)
6.50,17.19,-3.31,-10.31,0.69,7.89,32.17,21.90,53.67,18.47,37.38,19.92,40.00,4.26,81.17,44.91,59.24,21.09,20.71,61.74,33.00,13.88,32.81,25.76,12.53,26.00,14.33,20.00,17.00,17.56,39.13,28.79,88.68,54.25,12.75,64.40,33.00,8.85,14.99,7.67,17.46,5.59,12.06,3.43,3.00,7.60,5.88,128.00,8.00,5.00,4.00,11.65,10.31,209.00,10.00,8.00,13.00,5.24,4.35,90.00,8.00,6.00,5.00,11.97,9.20,220.00,9.00,7.00,13.00,2.59,1.78,32.00,4.00,2.00,0.00,0,휴식 (Relax)
-1.00,-4.12,2.31,1.38,-1.19,8.22,33.94,24.15,50.60,10.49,33.94,16.23,48.00,15.22,72.31,43.75,64.14,28.10,9.76,61.97,44.00,17.83,27.26,19.89,18.03,29.53,18.63,14.24,23.00,11.54,37.56,38.36,88.00,45.37,6.44,63.88,22.00,10.63,13.54,7.97,16.76,4.19,13.95,1.43,5.00,7.42,5.38,120.00,8.00,5.00,3.00,11.59,10.14,220.00,10.00,8.00,13.00,5.20,4.31,96.00,9.00,6.00,5.00,11.59,8.77,220.00,10.00,8.00,13.00,2.60,1.87,34.00,4.00,2.00,0.00,0,휴식 (Relax)
13.50,6.19,-3.69,22.00,3.62,17.98,16.06,1.33,28.84,23.07,49.30,30.57,72.00,6.19,74.30,33.75,55.00,38.27,6.71,67.96,55.00,17.83,27.26,19.89,18.03,29.53,18.63,14.24,23.00,22.97,26.94,26.58,110.00,27.75,26.94,75.76,0.00,7.63,13.79,5.00,19.65,1.43,16.67,1.66,8.00,7.86,6.12,128.00,9.00,5.00,4.00,11.65,10.31,220.00,11.00,8.00,13.00,5.20,4.31,96.00,9.00,7.00,5.00,12.90,9.62,231.00,3.00,7.00,13.00,2.76,1.98,34.00,4.00,3.00,0.00,0,휴식 (Relax)
-3.50,4.81,2.31,-0.69,0.31,32.14,5.74,17.20,24.00,15.44,33.45,15.01,56.00,21.84,65.97,21.75,70.43,42.97,15.67,50.27,33.00,17.83,27.26,19.89,18.03,29.53,18.63,14.24,23.00,30.96,19.05,36.03,110.55,24.91,19.05,66.20,11.00,3.37,11.75,4.76,19.00,4.76,15.49,3.37,3.00,6.30,5.38,112.00,9.00,5.00,4.00,10.98,9.54,198.00,10.00,7.00,12.00,5.20,4.31,91.00,10.00,7.00,4.00,12.58,9.11,242.00,8.00,7.00,13.00,2.52,1.59,37.00,4.00,4.00,0.00,0,휴식 (Relax)
5.00,15.12,-2.62,-0.69,0.00,26.80,12.25,15.67,16.00,22.86,29.56,7.04,48.00,32.79,56.87,31.52,77.78,32.02,12.41,60.68,44.00,7.97,12.80,11.74,20.25,16.22,2.87,12.94,40.00,30.96,19.05,36.03,110.55,24.91,19.05,66.20,11.00,5.09,7.94,9.75,14.00,6.54,12.84,2.08,8.00,5.57,4.75,104.00,9.00,6.00,3.00,11.59,10.14,187.00,9.00,6.00,12.00,3.97,3.58,86.00,11.00,8.00,3.00,12.58,9.11,231.00,8.00,6.00,12.00,2.21,1.12,32.00,2.00,4.00,0.00,0,휴식 (Relax)
4.50,2.75,3.38,-1.38,-1.88,29.67,5.74,8.54,17.89,28.69,33.45,3.94,40.00,53.37,35.20,49.56,64.14,43.59,14.58,38.82,22.00,7.97,12.80,11.74,20.25,16.22,2.87,12.94,40.00,34.47,11.91,34.07,110.00,19.35,28.74,55.54,22.00,3.23,9.93,9.27,14.14,8.43,11.01,4.07,10.00,5.63,4.94,104.00,9.00,6.00,3.00,10.65,8.94,176.00,8.00,6.00,12.00,3.97,3.58,86.00,11.00,8.00,3.00,12.22,8.59,209.00,7.00,5.00,11.00,2.26,1.31,34.00,3.00,4.00,0.00,0,휴식 (Relax)
4.00,-17.88,7.69,-0.69,0.12,31.52,10.61,4.32,11.31,31.71,25.60,5.53,48.00,38.67,50.49,55.71,83.77,40.66,28.96,22.89,0.00,6.76,22.24,9.54,27.80,21.06,13.54,2.82,29.00,35.25,12.75,44.50,99.00,28.70,39.13,47.39,33.00,3.23,9.93,9.27,14.14,8.43,11.01,4.07,10.00,5.66,5.00,104.00,9.00,6.00,3.00,11.59,10.14,187.00,8.00,5.00,12.00,4.38,3.94,85.00,10.00,7.00,3.00,11.97,7.82,198.00,6.00,5.00,10.00,2.26,1.31,36.00,3.00,4.00,0.00,0,휴식 (Relax)
-11.50,-6.88,2.69,9.62,-1.75,32.78,3.31,3.96,17.89,39.67,19.31,12.34,56.00,38.67,50.49,55.71,83.77,40.66,28.96,22.89,0.00,6.76,22.24,9.54,27.80,21.06,13.54,2.82,29.00,30.20,18.83,38.61,99.61,37.60,45.45,44.63,44.00,1.47,10.30,10.93,14.00,6.75,10.30,5.73,12.00,6.30,5.50,112.00,9.00,5.00,4.00,11.59,10.14,176.00,7.00,5.00,12.00,4.38,3.94,79.00,9.00,7.00,2.00,12.22,8.59,198.00,7.00,4.00,10.00,2.30,1.47,38.00,3.00,4.00,0.00,0,휴식 (Relax)
12.00,25.44,-3.62,-2.06,0.25,28.49,8.66,8.50,22.63,42.73,20.91,19.04,64.00,37.50,57.67,53.44,93.98,49.85,35.67,22.63,11.00,8.33,20.84,12.46,24.04,16.08,13.92,2.22,24.00,24.46,29.81,46.66,88.68,40.66,47.51,43.16,33.00,1.47,10.30,10.93,14.00,6.75,10.30,5.73,12.00,6.93,6.00,128.00,9.00,6.00,5.00,12.73,10.74,198.00,8.00,5.00,12.00,3.94,3.62,74.00,9.00,6.00,1.00,11.81,8.08,198.00,8.00,5.00,10.00,2.30,1.47,40.00,3.00,4.00,0.00,0,휴식 (Relax)
3.50,3.44,-3.25,-12.38,0.25,23.13,13.86,15.51,28.84,48.26,13.86,14.97,56.00,37.50,57.67,53.44,93.98,49.85,35.67,22.63,11.00,9.08,25.97,15.71,20.25,15.46,12.06,7.99,18.00,33.01,23.81,37.47,90.71,51.66,57.49,40.17,22.00,1.47,10.30,10.93,14.00,6.75,10.30,5.73,12.00,6.91,5.94,136.00,9.00,7.00,5.00,12.73,10.74,209.00,7.00,5.00,12.00,3.98,3.66,68.00,8.00,6.00,1.00,12.22,8.59,198.00,7.00,4.00,10.00,2.30,1.47,34.00,3.00,3.00,0.00,0,휴식 (Relax)
-12.00,-17.88,2.38,9.62,3.44,30.19,14.78,17.21,33.94,55.62,6.12,17.51,48.00,45.69,50.49,45.40,104.36,60.53,28.96,29.99,0.00,5.99,20.33,10.28,25.50,21.26,8.42,13.51,12.00,33.01,23.81,37.47,90.71,51.66,57.49,40.17,22.00,3.79,7.81,9.45,11.00,3.92,7.81,6.71,9.00,7.48,6.50,144.00,10.00,6.00,6.00,13.40,11.52,220.00,7.00,4.00,12.00,3.94,3.62,74.00,9.00,6.00,1.00,12.22,8.59,209.00,7.00,5.00,10.00,1.87,1.35,29.00,2.00,3.00,0.00,0,휴식 (Relax)
-4.50,-6.19,2.00,-1.38,3.12,22.19,8.00,9.24,28.84,56.36,8.00,24.44,40.00,56.40,53.31,51.04,101.41,54.95,28.08,19.75,11.00,5.91,18.86,12.69,23.54,18.48,14.15,9.72,18.00,33.01,23.81,37.47,90.71,51.66,57.49,40.17,22.00,1.21,9.65,6.84,12.08,3.35,8.88,11.16,4.00,6.91,5.94,136.00,9.00,6.00,5.00,13.45,11.69,220.00,6.00,5.00,12.00,3.86,3.50,74.00,9.00,6.00,1.00,12.22,8.59,187.00,8.00,5.00,10.00,2.00,1.31,26.00,2.00,2.00,0.00,0,휴식 (Relax)
-4.00,14.44,-13.38,-13.75,-0.19,29.83,16.00,13.82,22.63,49.75,16.00,32.44,32.00,35.03,34.49,30.13,122.98,71.54,22.47,2.69,33.00,10.97,14.68,3.90,33.38,26.75,23.25,13.45,28.00,19.59,9.11,32.68,69.57,32.68,53.11,19.59,0.00,6.16,10.17,2.01,7.81,2.01,4.31,6.16,9.00,6.93,6.00,128.00,8.00,6.00,5.00,13.87,12.12,231.00,7.00,5.00,12.00,5.07,4.20,79.00,9.00,5.00,1.00,9.12,7.56,154.00,7.00,5.00,10.00,1.55,1.05,24.00,4.00,2.00,0.00,0,휴식 (Relax)
3.50,2.06,-2.69,-22.69,-4.88,23.97,11.79,17.92,28.84,43.07,22.38,40.02,24.00,23.01,12.75,37.73,121.00,54.31,39.13,20.52,11.00,21.88,8.88,13.46,33.54,19.63,20.86,5.55,17.00,36.09,27.33,9.47,85.91,52.66,37.83,13.82,33.00,2.76,13.07,6.66,11.66,6.66,1.07,2.76,14.00,6.91,5.94,136.00,9.00,6.00,5.00,13.03,10.83,242.00,7.00,6.00,13.00,4.73,3.94,84.00,9.00,6.00,2.00,10.63,7.82,165.00,7.00,5.00,11.00,2.00,1.31,29.00,2.00,2.00,0.00,0,휴식 (Relax)
50.81,-19.94,-16.38,-98.44,8.56,56.21,65.48,76.08,49.24,64.28,57.57,37.69,83.00,23.01,12.75,37.73,121.00,54.31,39.13,20.52,11.00,42.38,15.36,31.00,13.42,17.71,15.36,24.69,38.00,139.84,132.30,108.15,74.33,75.87,147.63,104.72,83.00,8.88,4.07,10.09,18.03,12.20,10.07,9.92,23.00,14.78,8.30,179.00,5.00,6.00,6.00,13.03,10.83,231.00,7.00,6.00,13.00,6.28,4.67,93.00,8.00,7.00,3.00,27.42,15.90,248.00,5.00,5.00,12.00,2.98,2.03,43.00,5.00,3.00,1.00,1,주먹 쥐기 (Fist)
-117.38,-123.81,25.81,48.50,22.06,68.82,81.57,124.82,155.08,121.50,179.44,161.00,208.00,134.91,143.31,145.63,189.62,91.69,131.77,130.67,157.00,23.26,27.00,41.64,37.00,22.94,27.00,53.39,67.00,114.27,116.63,101.82,101.21,101.43,175.43,136.43,116.00,31.31,21.32,33.30,37.16,28.73,18.32,14.20,1.00,33.72,16.95,355.00,9.00,7.00,7.00,34.36,19.53,344.00,5.00,6.00,14.00,9.15,6.31,137.00,9.00,8.00,4.00,29.80,17.19,375.00,5.00,5.00,12.00,6.43,4.04,58.00,5.00,3.00,2.00,1,주먹 쥐기 (Fist)
-58.00,-8.75,-17.25,-37.44,-16.00,135.88,149.94,187.86,187.00,148.11,147.28,96.87,138.00,164.15,166.48,167.72,170.47,84.66,104.47,99.55,124.00,26.64,12.89,27.95,44.20,23.91,33.79,67.00,82.00,130.89,107.76,73.10,89.63,100.85,186.94,164.14,149.00,20.45,13.05,32.91,45.34,41.02,32.71,28.84,16.00,36.84,22.38,402.00,5.00,7.00,8.00,33.95,19.59,435.00,5.00,6.00,14.00,10.15,7.25,175.00,9.00,8.00,5.00,31.28,20.02,452.00,5.00,6.00,12.00,7.62,4.62,95.00,6.00,3.00,3.00,1,주먹 쥐기 (Fist)
101.50,86.62,-59.06,-129.38,39.19,76.84,122.53,211.76,277.09,250.51,217.86,90.47,34.00,122.57,183.94,217.07,251.87,170.84,130.51,72.84,34.00,75.07,64.66,75.77,105.51,85.67,78.13,50.74,15.00,217.88,88.97,91.78,233.62,237.26,272.60,136.89,4.00,52.82,38.73,14.12,31.95,57.70,68.49,71.26,61.00,45.20,26.56,552.00,8.00,6.00,8.00,40.65,23.95,525.00,6.00,6.00,14.00,18.29,11.66,215.00,5.00,7.00,6.00,45.74,31.69,531.00,3.00,5.00,12.00,12.65,8.07,148.00,3.00,3.00,4.00,1,주먹 쥐기 (Fist)
-123.38,-100.19,166.00,266.38,-31.75,144.73,89.03,67.55,255.14,320.54,362.82,225.09,112.00,148.77,84.83,117.71,311.30,253.90,244.95,169.81,81.00,130.70,126.62,134.00,226.29,233.77,250.01,213.78,160.00,225.49,263.78,186.80,325.30,427.09,516.15,349.85,240.00,37.51,36.61,36.69,11.40,54.41,86.16,100.19,94.00,55.19,36.48,770.00,7.00,6.00,8.00,48.14,31.14,719.00,7.00,7.00,15.00,46.60,23.50,445.00,5.00,7.00,7.00,82.02,41.97,920.00,6.00,6.00,12.00,15.07,9.16,218.00,6.00,4.00,5.00,1,주먹 쥐기 (Fist)
266.31,67.31,-36.75,-40.88,38.56,222.68,307.82,292.48,40.80,316.24,580.32,500.70,389.00,145.77,140.81,111.96,271.31,249.02,289.62,225.77,137.00,94.70,96.49,110.69,212.51,239.47,274.10,249.02,196.00,189.92,224.79,160.81,295.38,425.88,546.82,393.68,284.00,48.82,16.67,31.00,32.14,30.55,94.42,133.56,137.00,88.15,51.66,1169.00,7.00,7.00,9.00,51.04,33.77,879.00,8.00,7.00,15.00,47.55,24.34,644.00,6.00,7.00,8.00,82.70,45.02,1230.00,7.00,7.00,13.00,18.06,12.66,291.00,5.00,5.00,6.00,1,주먹 쥐기 (Fist)
-54.25,108.56,20.44,77.19,-25.06,168.54,260.84,288.80,32.56,282.00,598.04,550.53,444.00,208.08,216.59,57.51,345.58,335.21,286.04,147.14,45.00,122.13,103.78,97.52,185.16,216.64,275.56,273.68,225.00,266.39,256.70,129.10,240.05,355.08,553.67,465.29,363.00,46.26,30.18,10.25,37.22,11.97,89.06,147.19,159.00,89.26,53.75,1493.00,9.00,8.00,10.00,57.95,39.44,915.00,8.00,7.00,15.00,47.81,26.22,697.00,7.00,8.00,9.00,85.06,50.24,1353.00,9.00,8.00,14.00,19.15,13.34,354.00,6.00,6.00,7.00,1,주먹 쥐기 (Fist)
8.25,-55.38,-45.69,-128.38,-13.50,176.41,262.44,281.34,27.20,274.17,594.87,556.08,452.00,146.13,205.86,120.95,316.62,380.28,339.62,130.12,20.00,91.18,128.63,143.48,206.09,176.94,249.12,303.82,271.00,135.69,315.42,262.08,356.20,263.12,486.88,568.34,498.00,51.27,39.02,14.98,45.19,20.84,96.34,144.47,150.00,89.28,54.25,1556.00,10.00,9.00,11.00,59.67,42.30,1061.00,8.00,7.00,15.00,49.24,27.77,761.00,9.00,8.00,10.00,91.29,58.00,1567.00,9.00,9.00,15.00,19.42,13.75,363.00,8.00,7.00,8.00,1,주먹 쥐기 (Fist)
15.25,-42.38,95.31,159.44,8.75,190.06,254.17,270.47,41.23,277.51,609.74,550.34,436.00,114.14,229.37,140.19,346.63,392.36,308.64,122.45,12.00,143.23,33.21,135.65,291.38,217.37,157.78,350.97,367.00,278.13,155.29,230.82,449.11,380.08,341.32,668.91,661.00,41.24,33.50,6.63,51.40,26.62,108.16,146.35,138.00,89.37,55.44,1548.00,9.00,8.00,10.00,60.58,44.20,1061.00,7.00,8.00,15.00,55.03,36.66,903.00,7.00,9.00,11.00,100.13,69.08,1854.00,10.00,9.00,15.00,19.54,14.34,384.00,7.00,7.00,9.00,1,주먹 쥐기 (Fist)
-31.75,31.56,-72.25,-129.44,5.06,180.81,269.62,263.86,38.00,264.76,624.44,551.21,420.00,144.86,196.52,157.06,337.12,425.34,293.62,110.19,45.00,125.72,100.58,65.70,272.11,286.64,95.96,374.55,438.00,195.55,291.32,95.86,358.34,509.04,201.40,734.71,807.00,30.75,39.63,16.83,60.54,33.04,102.15,140.53,149.00,89.64,56.25,1572.00,9.00,8.00,10.00,61.12,46.19,1104.00,8.00,7.00,15.00,58.09,38.88,1069.00,8.00,10.00,12.00,105.54,75.24,2141.00,11.00,10.00,15.00,19.53,14.55,385.00,7.00,8.00,9.00,1,주먹 쥐기 (Fist)
-58.31,0.62,-44.75,-102.25,-1.12,181.47,332.76,192.86,109.00,328.52,601.40,523.49,491.00,122.07,218.83,125.22,305.22,438.14,306.87,94.35,78.00,146.37,127.68,52.66,311.71,281.41,107.99,375.22,398.00,234.23,362.40,60.88,461.69,524.45,268.45,724.67,692.00,27.75,42.63,18.74,59.06,30.27,101.44,142.92,146.00,90.87,59.10,1595.00,9.00,8.00,11.00,60.58,44.20,1115.00,8.00,8.00,15.00,59.19,40.44,1094.00,10.00,11.00,13.00,108.78,80.38,2150.00,9.00,10.00,15.00,19.51,14.41,391.00,8.00,8.00,9.00,1,주먹 쥐기 (Fist)
-87.19,-96.19,-32.88,-123.88,24.94,250.19,378.71,180.59,146.58,344.02,560.10,593.49,393.00,143.08,248.64,161.89,295.85,522.97,201.12,191.95,37.00,173.13,133.52,81.28,317.05,254.78,120.24,362.82,428.00,353.49,387.99,194.10,528.03,392.43,297.05,685.80,826.00,12.98,69.07,28.90,35.00,42.95,128.75,113.12,177.00,93.61,63.81,1614.00,8.00,7.00,11.00,65.40,49.94,1197.00,8.00,7.00,15.00,59.79,41.84,1098.00,9.00,11.00,14.00,113.39,87.48,2158.00,9.00,10.00,15.00,20.52,16.07,416.00,9.00,9.00,10.00,1,주먹 쥐기 (Fist)
-142.06,-81.00,3.12,32.12,-16.19,393.32,380.82,324.06,104.75,199.07,695.56,457.39,539.00,217.62,238.51,242.45,378.44,452.57,281.81,108.99,46.00,173.13,133.52,81.28,317.05,254.78,120.24,362.82,428.00,353.49,387.99,194.10,528.03,392.43,297.05,685.80,826.00,9.49,65.35,34.98,25.24,39.80,141.97,99.17,191.00,100.53,72.94,1670.00,7.00,7.00,12.00,68.66,55.62,1196.00,7.00,8.00,15.00,59.79,41.84,1134.00,10.00,11.00,15.00,113.39,87.48,2303.00,10.00,11.00,15.00,20.92,16.84,458.00,10.00,10.00,11.00,1,주먹 쥐기 (Fist)
67.25,54.25,-30.62,-86.69,-22.81,336.22,415.99,298.54,161.30,175.55,749.26,398.42,598.00,173.64,270.02,237.89,384.78,463.83,308.33,71.49,90.00,207.24,99.80,69.85,310.98,266.99,152.28,329.91,464.00,461.33,283.58,132.24,469.35,466.00,403.97,593.21,941.00,24.53,80.14,56.57,14.04,61.01,133.52,119.10,169.00,101.97,76.62,1883.00,8.00,8.00,13.00,69.99,57.88,1312.00,8.00,7.00,15.00,60.30,42.86,1154.00,10.00,11.00,15.00,115.45,91.02,2418.00,11.00,12.00,15.00,21.73,18.04,463.00,10.00,10.00,11.00,1,주먹 쥐기 (Fist)
-29.25,-104.62,-47.19,-168.31,32.75,368.45,376.16,270.73,157.03,208.74,764.81,361.20,638.00,312.33,124.84,118.57,243.50,609.41,330.42,129.33,236.00,238.64,64.96,34.72,349.76,227.99,142.92,368.88,425.00,625.80,107.37,70.77,654.36,293.98,361.53,784.65,743.00,27.84,41.27,60.56,25.02,89.24,155.01,149.16,130.00,102.23,77.78,1974.00,9.00,9.00,14.00,74.56,63.92,1469.00,9.00,8.00,15.00,61.46,44.61,1163.00,11.00,10.00,15.00,123.27,98.14,2501.00,11.00,12.00,15.00,23.30,20.00,516.00,11.00,10.00,12.00,1,주먹 쥐기 (Fist)
-138.75,-49.31,75.88,252.12,-13.12,481.15,268.40,123.66,325.01,124.98,839.12,494.29,470.00,384.43,101.53,42.90,282.14,576.77,372.51,46.05,151.00,205.21,111.74,110.42,350.77,212.40,201.89,443.88,346.00,507.01,269.92,252.88,626.16,433.56,570.83,1030.95,494.00,25.93,42.55,58.56,25.02,88.86,157.00,150.26,128.00,108.22,83.31,2043.00,9.00,8.00,14.00,75.23,65.44,1497.00,9.00,9.00,15.00,64.50,50.78,1276.00,11.00,10.00,15.00,139.32,117.59,2854.00,11.00,12.00,15.00,23.36,20.12,548.00,11.00,11.00,12.00,1,주먹 쥐기 (Fist)
195.56,142.12,-76.25,-168.94,16.94,438.00,258.83,138.43,348.57,243.37,959.16,575.72,347.00,316.54,85.50,125.59,187.30,685.78,508.15,91.05,14.00,206.88,117.74,113.39,289.36,270.36,262.95,493.54,284.00,506.31,251.07,207.22,531.55,520.16,661.01,1114.34,399.00,40.89,46.20,65.24,10.05,74.26,168.81,153.86,113.00,117.61,92.92,2209.00,9.00,8.00,14.00,83.63,74.00,1584.00,9.00,8.00,15.00,67.28,53.69,1388.00,11.00,10.00,15.00,144.53,122.05,3132.00,11.00,12.00,15.00,23.76,21.06,564.00,12.00,11.00,12.00,1,주먹 쥐기 (Fist)
-84.69,18.69,2.56,64.75,8.50,441.69,247.64,128.45,367.29,232.88,942.50,567.97,367.00,350.78,156.37,191.25,311.52,578.55,410.42,59.64,149.00,202.68,144.71,142.34,295.17,252.37,246.91,478.40,313.00,503.11,258.83,215.74,532.74,520.18,655.92,1107.30,410.00,33.01,37.98,70.78,12.81,69.21,170.37,153.20,104.00,116.60,91.98,2433.00,10.00,9.00,14.00,79.00,68.31,1586.00,9.00,9.00,15.00,66.84,51.42,1421.00,11.00,11.00,15.00,144.20,121.19,3277.00,11.00,13.00,15.00,23.45,20.50,534.00,11.00,11.00,11.00,1,주먹 쥐기 (Fist)
-29.06,-71.75,188.19,278.38,-38.38,454.48,226.24,106.50,360.33,220.04,946.98,568.16,345.00,300.33,158.35,225.21,297.74,606.03,422.81,132.08,222.00,354.92,104.40,199.53,102.53,407.69,364.19,497.88,527.00,738.14,51.32,160.77,227.88,816.22,806.74,1058.26,720.00,27.06,21.65,88.04,11.31,60.31,180.93,161.64,122.00,116.14,90.95,2324.00,9.00,9.00,14.00,81.14,72.88,1580.00,9.00,8.00,15.00,82.58,66.87,1574.00,9.00,10.00,15.00,161.09,141.45,3409.00,11.00,12.00,15.00,24.85,21.62,524.00,11.00,10.00,11.00,1,주먹 쥐기 (Fist)
362.44,147.25,-9.00,23.94,-20.50,694.52,135.56,252.10,131.82,481.86,1111.67,706.78,609.00,343.23,119.27,178.97,249.88,653.98,464.88,178.40,270.00,421.35,170.99,260.83,157.43,355.45,297.38,457.50,460.00,903.25,208.46,318.94,317.59,730.23,640.78,1008.75,553.00,75.84,61.46,114.31,54.59,122.31,119.58,117.88,60.00,146.17,111.58,2498.00,9.00,8.00,14.00,85.63,75.88,1608.00,9.00,8.00,15.00,80.50,64.25,1531.00,9.00,10.00,15.00,157.53,135.31,3242.00,10.00,12.00,15.00,23.47,20.50,465.00,8.00,10.00,11.00,1,주먹 쥐기 (Fist)
66.94,44.00,-45.31,-32.06,33.19,910.30,349.09,434.49,330.09,464.89,895.70,521.70,393.00,491.15,29.72,222.05,279.52,619.54,326.97,103.73,122.00,218.59,170.36,335.06,203.00,475.76,228.68,300.96,241.00,599.24,260.75,413.13,251.20,973.75,434.69,864.43,233.00,7.81,28.97,158.27,94.05,161.82,74.21,70.24,9.00,142.96,110.20,2373.00,8.00,8.00,14.00,82.84,72.12,1531.00,7.00,9.00,15.00,70.07,52.27,1376.00,10.00,9.00,15.00,141.76,119.32,3008.00,10.00,11.00,15.00,23.63,20.69,450.00,10.00,9.00,11.00,1,주먹 쥐기 (Fist)
-111.44,-129.88,46.50,-22.06,-15.31,576.48,255.34,592.56,447.63,852.76,670.22,169.89,1.00,304.34,185.38,54.33,132.85,809.13,324.58,269.49,88.00,275.85,88.03,256.52,157.66,553.24,298.34,237.82,158.00,599.24,260.75,413.13,251.20,973.75,434.69,864.43,233.00,61.03,29.78,111.67,77.03,150.32,108.31,46.97,65.00,129.73,96.05,2252.00,8.00,7.00,14.00,87.68,76.88,1671.00,9.00,8.00,15.00,70.63,54.31,1414.00,8.00,9.00,15.00,141.76,119.32,2895.00,9.00,11.00,15.00,21.95,19.19,437.00,8.00,9.00,11.00,1,주먹 쥐기 (Fist)
25.12,-39.75,122.81,168.44,-27.12,611.12,187.95,526.58,399.96,890.33,701.01,110.85,72.00,257.57,341.30,227.34,307.48,695.89,184.15,91.79,90.00,339.15,61.17,276.50,260.32,557.81,198.24,338.34,265.00,630.34,220.90,413.63,287.80,990.15,370.92,928.98,305.00,63.69,31.29,112.65,80.02,153.12,105.32,47.99,62.00,129.45,95.86,2330.00,8.00,8.00,14.00,81.95,70.72,1582.00,8.00,8.00,15.00,77.21,63.51,1428.00,7.00,8.00,15.00,145.98,124.38,2876.00,9.00,10.00,15.00,22.17,19.38,438.00,8.00,9.00,11.00,1,주먹 쥐기 (Fist)
117.44,41.50,-125.38,-348.19,37.50,637.84,99.42,538.33,488.26,953.71,599.28,214.41,35.00,234.58,317.41,201.79,307.24,740.49,109.31,43.59,166.00,319.13,20.10,199.50,254.79,632.64,187.33,415.01,342.00,651.94,272.32,192.63,173.74,1234.56,147.30,1174.75,551.00,50.11,68.01,58.76,97.65,194.04,82.45,93.89,8.00,132.88,103.38,2421.00,8.00,7.00,15.00,82.29,71.75,1657.00,9.00,8.00,15.00,82.59,66.52,1534.00,7.00,8.00,15.00,168.73,137.84,3110.00,9.00,10.00,15.00,23.95,21.00,483.00,10.00,9.00,11.00,1,주먹 쥐기 (Fist)
-213.12,-108.81,92.06,208.00,3.69,697.25,259.95,298.87,420.00,1192.64,390.83,458.85,282.00,292.53,278.37,133.93,217.18,828.40,57.95,111.22,257.00,320.90,22.60,196.84,261.77,628.62,182.15,408.80,335.00,643.93,273.79,204.17,160.80,1240.78,146.78,1186.95,564.00,48.36,65.17,60.20,95.21,193.40,84.25,96.89,5.00,143.75,112.66,2719.00,8.00,8.00,15.00,86.75,77.44,1737.00,9.00,8.00,15.00,82.08,65.91,1579.00,7.00,8.00,15.00,169.70,138.75,3369.00,9.00,10.00,15.00,23.91,20.81,514.00,10.00,10.00,12.00,1,주먹 쥐기 (Fist)
30.88,-23.38,-26.06,-213.62,-34.75,663.23,245.57,332.70,372.01,1201.42,390.56,501.69,330.00,375.19,205.46,53.81,247.33,820.27,63.32,24.23,170.00,292.98,60.13,164.52,270.22,657.00,132.19,378.75,285.00,748.50,193.35,242.99,189.75,1170.75,245.08,1276.34,682.00,26.46,59.98,47.96,123.85,233.82,43.89,61.45,46.00,143.92,114.27,2935.00,9.00,9.00,15.00,85.65,74.92,1784.00,9.00,9.00,15.00,80.17,63.96,1669.00,8.00,9.00,15.00,176.45,145.20,3778.00,10.00,10.00,15.00,25.52,22.62,549.00,9.00,9.00,13.00,1,주먹 쥐기 (Fist)
10.94,20.31,86.75,293.75,-11.00,606.13,284.69,317.11,376.97,1254.05,346.16,461.95,267.00,386.12,194.52,57.56,256.91,810.30,63.65,34.55,181.00,197.81,203.48,35.54,413.96,515.52,255.42,432.69,432.00,355.59,583.61,161.39,563.31,788.81,629.85,1504.77,1076.00,24.75,70.36,37.75,131.64,227.82,54.53,68.04,34.00,143.41,112.19,2916.00,9.00,10.00,15.00,85.44,74.15,1723.00,9.00,8.00,15.00,82.19,69.06,1781.00,9.00,10.00,15.00,191.06,160.38,4280.00,11.00,10.00,15.00,25.68,23.25,544.00,9.00,9.00,13.00,1,주먹 쥐기 (Fist)
86.38,55.75,-86.81,-190.25,-4.75,421.69,469.65,144.06,560.33,1107.50,530.89,536.57,452.00,274.18,300.09,79.55,344.60,715.00,191.06,165.23,318.00,228.32,181.98,29.40,422.31,513.81,272.73,440.11,471.00,417.40,536.53,131.45,555.30,785.69,670.59,1527.13,1140.00,37.23,105.26,19.96,107.90,207.18,53.78,68.15,70.00,143.38,111.50,2939.00,11.00,10.00,15.00,84.59,73.62,1757.00,9.00,8.00,15.00,84.20,70.89,1921.00,10.00,10.00,15.00,194.39,164.38,4612.00,11.00,10.00,15.00,24.59,21.31,506.00,8.00,9.00,12.00,1,주먹 쥐기 (Fist)
