a0,a1,a2,a3,a4,a0_f1,a0_f2,a0_f3,a0_f4,a0_f5,a0_f6,a0_f7,a0_f8,a1_f1,a1_f2,a1_f3,a1_f4,a1_f5,a1_f6,a1_f7,a1_f8,a2_f1,a2_f2,a2_f3,a2_f4,a2_f5,a2_f6,a2_f7,a2_f8,a3_f1,a3_f2,a3_f3,a3_f4,a3_f5,a3_f6,a3_f7,a3_f8,a4_f1,a4_f2,a4_f3,a4_f4,a4_f5,a4_f6,a4_f7,a4_f8,a0_rms,a0_mav,a0_wl,a0_zc,a0_ssc,a0_wamp,a1_rms,a1_mav,a1_wl,a1_zc,a1_ssc,a1_wamp,a2_rms,a2_mav,a2_wl,a2_zc,a2_ssc,a2_wamp,a3_rms,a3_mav,a3_wl,a3_zc,a3_ssc,a3_wamp,a4_rms,a4_mav,a4_wl,a4_zc,a4_ssc,a4_wamp,label,action_name
0.00,0.00,0.00,0.00,0.00,0.00,0.00,0.00,0.00,0.00,0.00,0.00,0.00,0.00,0.00,0.00,0.00,0.00,0.00,0.00,0.00,0.00,0.00,0.00,0.00,0.00,0.00,0.00,0.00,0.00,0.00,0.00,0.00,0.00,0.00,0.00,0.00,0.00,0.00,0.00,0.00,0.00,0.00,0.00,0.00,0.00,0.00,0.00,0.00,0.00,0.00,0.00,0.00,0.00,0.00,0.00,0.00,0.00,0.00,0.00,0.00,0.00,0.00,0.00,0.00,0.00,0.00,0.00,0.00,0.00,0.00,0.00,0.00,0.00,0.00,0,휴식 (Relax)
-6.56,9.38,-9.38,-9.38,0.00,7.00,7.00,7.00,7.00,7.00,7.00,7.00,7.00,10.00,10.00,10.00,10.00,10.00,10.00,10.00,10.00,10.00,10.00,10.00,10.00,10.00,10.00,10.00,10.00,10.00,10.00,10.00,10.00,10.00,10.00,10.00,10.00,0.00,0.00,0.00,0.00,0.00,0.00,0.00,0.00,1.69,0.82,7.00,1.00,0.00,0.00,2.42,1.17,10.00,1.00,0.00,1.00,2.42,1.17,10.00,1.00,0.00,1.00,2.42,1.17,10.00,1.00,0.00,1.00,0.00,0.00,0.00,0.00,0.00,0.00,0,휴식 (Relax)
-13.62,8.75,-8.75,-18.12,0.00,21.63,20.55,18.82,16.55,13.92,11.20,8.94,8.00,19.62,18.48,16.63,14.14,11.11,7.65,3.90,0.00,19.62,18.48,16.63,14.14,11.11,7.65,3.90,0.00,29.49,27.98,25.56,22.36,18.63,14.74,11.42,10.00,0.00,0.00,0.00,0.00,0.00,0.00,0.00,0.00,3.90,2.41,15.00,1.00,0.00,0.00,3.31,2.19,10.00,1.00,0.00,1.00,3.31,2.19,10.00,1.00,0.00,1.00,5.27,3.28,20.00,1.00,0.00,2.00,0.00,0.00,0.00,0.00,0.00,0.00,0,휴식 (Relax)
-12.69,-1.25,-12.81,-16.88,0.00,35.46,31.08,24.56,17.00,9.90,5.68,6.14,7.00,19.62,18.48,16.63,14.14,11.11,7.65,3.90,0.00,33.15,27.90,20.10,11.18,4.64,8.45,13.24,15.00,47.87,41.82,32.81,22.36,12.57,7.17,8.61,10.00,0.00,0.00,0.00,0.00,0.00,0.00,0.00,0.00,5.08,3.76,15.00,1.00,0.00,0.00,3.31,2.19,20.00,2.00,0.00,2.00,4.67,3.55,15.00,1.00,0.00,1.00,6.82,5.08,20.00,1.00,0.00,2.00,0.00,0.00,0.00,0.00,0.00,0.00,0,휴식 (Relax)
-18.31,8.12,-11.88,12.50,4.69,54.18,41.21,24.26,10.63,12.13,16.35,16.15,15.00,26.51,17.32,7.10,10.00,16.33,17.32,13.42,10.00,45.46,33.31,17.67,7.07,11.80,13.80,9.04,0.00,40.77,41.32,38.61,31.62,22.56,17.11,18.37,20.00,5.00,5.00,5.00,5.00,5.00,5.00,5.00,5.00,6.92,5.53,22.00,1.00,0.00,0.00,3.90,3.05,30.00,3.00,1.00,3.00,5.56,4.69,15.00,1.00,0.00,1.00,7.50,5.31,50.00,2.00,0.00,3.00,1.21,0.59,5.00,1.00,0.00,0.00,0,휴식 (Relax)
-10.38,16.88,-15.62,11.88,4.38,65.27,43.15,18.22,9.90,14.74,11.57,4.69,0.00,40.32,17.32,15.29,30.00,29.72,17.32,7.58,10.00,59.99,35.37,12.16,15.81,15.97,7.00,14.09,20.00,38.88,49.31,48.16,36.06,21.11,12.99,11.09,10.00,9.81,9.24,8.31,7.07,5.56,3.83,1.95,0.00,7.36,6.36,29.00,1.00,1.00,0.00,5.83,4.69,40.00,3.00,1.00,4.00,6.82,6.02,20.00,1.00,0.00,1.00,8.08,5.55,50.00,2.00,0.00,3.00,1.65,1.09,5.00,1.00,0.00,0.00,0,휴식 (Relax)
-1.94,25.00,-9.69,11.25,-2.50,69.02,40.40,11.84,7.00,8.46,6.50,7.21,7.00,61.88,32.00,41.51,42.43,18.59,13.26,22.42,20.00,68.94,32.71,12.07,18.03,8.41,8.95,11.41,5.00,43.14,59.14,50.40,28.28,11.96,10.15,16.00,20.00,8.22,8.67,8.92,8.60,7.53,5.73,3.48,2.00,7.28,6.33,37.00,1.00,1.00,0.00,8.66,6.88,50.00,3.00,1.00,5.00,7.17,6.64,25.00,1.00,1.00,1.00,8.57,5.78,50.00,2.00,0.00,3.00,1.77,1.12,12.00,2.00,0.00,0.00,0,휴식 (Relax)
12.56,23.12,-4.06,10.62,4.19,67.76,47.70,18.85,15.00,12.86,2.61,13.11,15.00,82.56,48.46,53.74,30.00,11.51,25.52,12.81,10.00,72.87,26.99,11.26,11.18,2.64,4.63,7.49,15.00,51.56,65.42,43.35,22.36,20.93,17.89,14.98,10.00,11.34,7.12,3.93,7.00,10.01,10.36,8.48,7.00,7.86,6.70,52.00,2.00,1.00,1.00,10.44,8.59,50.00,3.00,1.00,5.00,7.12,6.68,30.00,1.00,1.00,1.00,8.99,6.02,50.00,2.00,0.00,3.00,2.07,1.57,19.00,3.00,1.00,0.00,0,휴식 (Relax)
-9.50,30.62,-12.81,19.38,6.69,65.05,34.39,24.04,21.21,27.06,15.15,25.35,30.00,107.88,65.42,49.90,10.00,38.30,17.89,28.37,30.00,76.99,10.21,14.16,11.18,21.22,15.68,22.82,5.00,71.45,67.55,25.06,41.23,28.14,6.10,16.58,30.00,16.57,5.89,7.66,15.00,15.17,9.55,2.95,1.00,8.15,7.19,75.00,3.00,2.00,2.00,12.98,10.55,60.00,3.00,1.00,6.00,7.70,7.19,40.00,1.00,2.00,2.00,10.29,7.11,60.00,1.00,0.00,4.00,2.69,2.22,22.00,3.00,1.00,0.00,0,휴식 (Relax)
-1.06,18.75,-11.56,-0.62,3.38,62.24,33.61,30.83,26.63,26.78,12.51,21.13,23.00,123.83,70.74,33.13,31.62,30.23,13.99,15.98,0.00,78.46,10.21,22.25,26.93,20.94,15.68,3.16,15.00,71.45,67.55,25.06,41.23,28.14,6.10,16.58,30.00,19.54,6.71,11.99,15.81,11.16,5.56,4.68,4.00,8.03,6.94,83.00,3.00,3.00,2.00,13.64,11.72,70.00,1.00,2.00,7.00,8.05,7.38,40.00,1.00,2.00,2.00,10.29,7.11,80.00,2.00,1.00,5.00,2.80,2.48,25.00,3.00,2.00,0.00,0,휴식 (Relax)
13.44,66.56,8.44,58.44,5.88,67.97,28.58,30.45,31.83,34.50,18.48,21.61,15.00,166.69,86.02,50.42,78.92,53.71,70.28,72.82,83.00,78.46,10.21,22.25,26.93,20.94,15.68,3.16,15.00,126.40,17.23,87.59,25.08,70.31,68.42,64.52,93.00,23.53,9.19,14.30,8.60,11.13,13.55,6.78,4.00,8.61,7.44,98.00,4.00,3.00,3.00,21.75,16.80,123.00,1.00,3.00,8.00,8.05,7.38,60.00,2.00,2.00,3.00,18.26,11.95,143.00,3.00,2.00,6.00,3.16,2.91,28.00,3.00,3.00,0.00,0,휴식 (Relax)
42.94,92.31,13.12,85.44,8.19,106.53,13.44,69.62,66.13,34.24,22.30,32.17,55.00,235.87,138.96,139.46,112.81,113.54,77.60,66.09,33.00,81.33,12.25,27.22,31.62,20.03,12.25,6.62,10.00,206.68,82.92,155.94,89.02,120.04,70.81,59.45,3.00,28.64,14.30,12.14,9.22,20.56,9.25,4.67,7.00,13.97,9.94,130.00,4.00,3.00,4.00,31.98,23.36,156.00,1.00,3.00,9.00,8.45,7.73,65.00,2.00,2.00,3.00,28.61,18.41,176.00,3.00,2.00,7.00,3.76,3.41,31.00,3.00,3.00,0.00,0,휴식 (Relax)
32.94,85.06,12.81,79.44,7.50,138.14,38.48,90.05,62.65,7.71,18.69,29.68,23.00,305.80,191.40,184.92,96.15,79.41,41.11,53.57,83.00,85.65,17.20,29.87,30.41,15.69,12.42,5.11,15.00,280.58,160.77,171.73,112.81,63.30,25.19,44.03,93.00,33.29,18.78,7.30,18.97,15.09,6.87,8.15,4.00,16.33,11.94,138.00,4.00,4.00,4.00,38.31,28.91,156.00,3.00,3.00,9.00,8.83,8.09,65.00,2.00,2.00,3.00,35.10,26.09,176.00,3.00,2.00,7.00,4.17,3.75,31.00,3.00,3.00,0.00,0,휴식 (Relax)
30.94,46.88,22.81,73.44,-0.69,166.52,59.77,84.93,31.32,25.87,13.34,21.32,55.00,347.75,207.13,165.64,43.10,3.69,50.59,52.74,0.00,101.55,31.38,25.52,14.87,30.36,24.84,14.10,1.00,344.27,214.71,129.64,73.68,50.03,80.59,74.27,3.00,34.02,18.79,5.02,18.25,12.77,8.05,5.15,1.00,18.18,14.34,138.00,3.00,4.00,4.00,39.38,32.17,189.00,3.00,3.00,10.00,10.42,9.21,76.00,2.00,2.00,4.00,39.66,32.59,176.00,1.00,2.00,7.00,4.07,3.56,39.00,4.00,3.00,0.00,0,휴식 (Relax)
58.94,52.00,32.12,67.44,-3.69,215.11,94.53,36.97,62.65,63.32,54.83,66.22,9.00,381.49,191.93,86.95,51.09,93.47,51.07,45.96,94.00,127.65,49.36,10.81,34.93,38.46,9.13,18.72,26.00,395.03,236.15,43.85,25.08,118.56,50.86,22.41,93.00,34.02,18.79,5.02,18.25,12.77,8.05,5.15,1.00,23.71,19.20,170.00,3.00,4.00,5.00,40.54,35.25,200.00,1.00,4.00,11.00,13.20,11.11,87.00,2.00,2.00,5.00,42.92,38.02,176.00,1.00,2.00,7.00,4.07,3.56,42.00,4.00,3.00,0.00,0,휴식 (Relax)
47.44,46.12,30.44,51.12,-5.56,249.93,115.13,19.04,102.08,45.27,33.91,10.98,47.00,401.24,148.97,32.17,109.59,101.10,50.87,66.95,0.00,150.39,60.20,20.29,52.01,14.48,18.82,8.71,1.00,425.76,221.38,46.20,78.45,81.38,36.83,67.84,8.00,35.02,20.79,5.59,18.03,12.86,6.47,6.71,3.00,26.65,22.65,178.00,1.00,5.00,5.00,40.84,37.34,200.00,1.00,4.00,11.00,15.31,13.01,87.00,2.00,2.00,5.00,44.30,41.09,187.00,1.00,2.00,8.00,4.21,3.69,44.00,4.00,3.00,0.00,0,휴식 (Relax)
59.88,40.25,34.38,66.44,-0.75,284.54,125.54,81.78,87.86,29.19,44.76,81.04,26.00,406.13,86.88,126.17,106.10,19.03,50.67,27.79,94.00,172.60,64.03,39.23,41.01,30.23,27.14,26.62,32.00,446.42,165.45,141.79,112.61,45.65,95.29,42.79,115.00,32.64,18.61,7.89,21.02,10.36,7.04,8.77,6.00,30.73,27.28,188.00,1.00,6.00,6.00,40.29,37.97,190.00,1.00,4.00,10.00,17.67,15.33,83.00,1.00,2.00,4.00,46.69,44.38,199.00,1.00,3.00,8.00,4.12,3.50,49.00,4.00,4.00,0.00,0,휴식 (Relax)
38.94,45.31,26.06,48.81,-3.75,304.46,119.99,111.51,29.21,65.49,59.09,39.07,37.00,395.97,38.90,184.72,43.05,81.13,52.08,73.48,1.00,190.66,59.97,49.72,4.12,49.19,11.37,12.00,5.00,450.60,87.88,188.92,89.54,130.47,44.94,63.38,9.00,32.64,18.61,7.89,21.02,10.36,7.04,8.77,6.00,31.91,29.20,197.00,1.00,7.00,7.00,40.41,38.44,201.00,1.00,4.00,11.00,18.78,16.68,89.00,1.00,3.00,4.00,46.57,44.69,200.00,1.00,4.00,8.00,4.12,3.50,52.00,4.00,5.00,0.00,0,휴식 (Relax)
34.50,39.38,18.12,51.88,-3.75,314.63,98.23,105.36,57.78,48.45,12.15,74.91,34.00,371.26,88.73,181.95,52.04,109.00,51.22,26.33,94.00,199.27,49.92,44.15,30.27,27.03,20.68,19.01,26.00,438.76,51.39,176.62,53.01,106.07,85.76,70.75,136.00,32.64,18.61,7.89,21.02,10.36,7.04,8.77,6.00,32.08,29.62,197.00,1.00,7.00,7.00,39.64,37.42,191.00,1.00,3.00,10.00,19.15,17.25,90.00,1.00,3.00,4.00,45.24,43.23,211.00,1.00,5.00,9.00,4.12,3.50,52.00,4.00,5.00,0.00,0,휴식 (Relax)
46.00,22.50,21.50,33.62,-7.50,314.98,73.66,63.28,123.00,39.85,78.30,74.14,54.00,333.39,150.50,119.30,109.18,40.24,50.11,68.01,0.00,202.19,34.01,23.64,54.92,31.35,27.48,25.84,16.00,414.46,136.90,110.25,95.26,9.93,96.69,45.87,20.00,36.21,14.62,11.85,21.21,14.26,9.29,8.55,10.00,32.89,29.88,207.00,1.00,6.00,8.00,36.30,33.62,192.00,1.00,3.00,10.00,19.39,17.44,96.00,1.00,4.00,4.00,41.79,39.28,192.00,1.00,6.00,9.00,4.44,3.75,51.00,3.00,5.00,0.00,0,휴식 (Relax)
31.62,6.94,30.12,38.56,-0.38,305.43,81.45,40.05,115.80,76.15,56.59,45.22,32.00,292.94,179.96,46.77,98.27,45.18,33.12,31.52,73.00,197.60,43.52,36.63,51.88,70.13,29.69,28.35,38.00,380.64,196.86,22.22,100.70,93.45,2.50,54.06,117.00,37.59,13.34,12.94,19.24,13.25,9.50,9.18,8.00,31.44,27.88,209.00,3.00,7.00,8.00,32.70,28.79,193.00,1.00,3.00,10.00,20.21,18.25,103.00,1.00,3.00,5.00,40.77,37.20,203.00,1.00,7.00,10.00,4.43,3.67,58.00,3.00,6.00,0.00,0,휴식 (Relax)
11.69,23.62,4.88,11.88,-3.06,289.02,96.60,61.35,58.25,49.05,19.43,72.28,31.00,233.83,185.18,88.07,23.71,100.89,52.55,66.99,12.00,188.61,59.32,52.13,26.00,49.78,16.30,12.56,2.00,341.75,217.15,53.17,54.92,88.09,76.54,23.55,42.00,39.73,14.91,11.24,19.10,10.66,5.97,6.48,13.00,29.12,25.40,217.00,3.00,7.00,9.00,29.95,24.44,205.00,1.00,4.00,10.00,18.83,16.61,121.00,1.00,4.00,6.00,38.00,32.83,225.00,1.00,8.00,11.00,4.48,3.70,54.00,2.00,6.00,0.00,0,휴식 (Relax)
0.75,-31.69,2.94,-23.75,-3.19,267.37,98.42,66.90,50.00,14.46,55.90,29.93,16.00,216.00,176.25,105.74,11.00,86.18,38.66,53.34,9.00,174.31,66.03,49.62,12.21,33.38,15.17,19.86,33.00,311.54,206.95,81.04,15.62,46.13,54.40,18.45,84.00,39.56,13.01,13.19,17.12,8.66,4.08,5.49,15.00,26.88,22.19,210.00,3.00,6.00,8.00,28.07,22.47,259.00,2.00,5.00,11.00,17.60,14.80,116.00,1.00,3.00,6.00,34.87,29.22,258.00,2.00,8.00,12.00,4.36,3.61,47.00,1.00,6.00,0.00,0,휴식 (Relax)
-31.25,-52.69,-13.69,-65.75,-6.62,267.37,98.42,66.90,50.00,14.46,55.90,29.93,16.00,216.00,176.25,105.74,11.00,86.18,38.66,53.34,9.00,167.33,63.50,41.91,21.19,43.23,12.55,13.14,23.00,311.54,206.95,81.04,15.62,46.13,54.40,18.45,84.00,37.57,21.50,10.95,18.38,9.48,5.44,6.54,24.00,26.88,22.19,219.00,4.00,5.00,8.00,28.07,22.47,270.00,2.00,4.00,11.00,16.93,14.02,122.00,2.00,3.00,6.00,34.87,29.22,290.00,2.00,7.00,12.00,4.66,3.88,48.00,5.00,5.00,0.00,0,휴식 (Relax)
-25.19,-61.44,-19.62,-74.50,0.69,238.90,69.17,38.43,50.92,23.03,72.37,2.34,47.00,235.62,194.92,125.13,22.83,66.29,23.73,52.73,11.00,153.79,51.88,28.82,21.54,37.72,9.43,20.80,38.00,331.54,226.75,100.84,12.81,36.17,35.38,14.89,64.00,35.44,24.40,15.84,13.89,4.69,2.62,5.90,19.00,23.85,20.06,219.00,2.00,6.00,8.00,30.30,24.34,270.00,2.00,3.00,11.00,15.39,12.84,127.00,2.00,3.00,6.00,37.13,30.94,280.00,2.00,6.00,12.00,4.45,3.56,52.00,6.00,5.00,0.00,0,휴식 (Relax)
-48.19,-70.19,-20.56,-83.88,-7.62,238.90,69.17,38.43,50.92,23.03,72.37,2.34,47.00,252.60,204.21,137.73,36.89,74.20,43.54,60.56,9.00,138.83,36.88,35.42,9.43,26.59,19.24,18.97,23.00,340.89,232.94,106.15,21.54,46.13,44.78,9.56,74.00,28.90,25.93,23.65,12.65,11.83,9.16,8.58,30.00,23.85,20.06,227.00,2.00,7.00,8.00,32.71,26.22,227.00,1.00,3.00,11.00,13.60,11.67,107.00,2.00,3.00,5.00,38.44,31.80,227.00,2.00,6.00,12.00,4.82,3.83,58.00,7.00,6.00,0.00,0,휴식 (Relax)
-25.69,-75.00,-10.88,-69.94,-3.00,231.41,66.43,46.24,48.84,21.80,66.77,10.27,55.00,309.54,199.82,127.06,70.21,140.67,56.32,48.60,74.00,134.08,33.61,40.27,5.83,31.44,14.50,16.37,28.00,389.44,235.12,89.04,58.52,58.88,58.14,68.50,11.00,22.09,23.57,23.71,22.36,15.61,8.97,8.63,20.00,23.22,19.56,218.00,2.00,7.00,8.00,38.00,33.00,204.00,1.00,3.00,11.00,13.29,11.28,112.00,2.00,3.00,6.00,42.38,37.21,204.00,1.00,7.00,12.00,4.60,3.50,59.00,7.00,7.00,0.00,0,휴식 (Relax)
-39.19,-58.38,-15.56,-63.94,-2.19,261.90,59.22,40.92,12.04,21.93,26.90,49.83,95.00,369.52,161.82,70.34,97.95,95.13,54.06,99.28,32.00,137.89,33.34,39.78,3.00,32.64,13.35,13.19,33.00,446.47,195.98,41.74,93.81,47.86,37.94,35.29,107.00,13.34,16.62,15.04,23.77,5.21,4.66,7.26,33.00,25.33,22.16,226.00,2.00,8.00,9.00,39.49,36.16,214.00,1.00,4.00,12.00,13.60,11.67,117.00,2.00,4.00,6.00,44.98,41.45,204.00,1.00,7.00,12.00,3.84,2.76,59.00,7.00,7.00,0.00,0,휴식 (Relax)
-37.19,-61.12,-24.62,-67.31,5.19,279.31,47.67,72.90,24.35,39.19,55.76,25.47,63.00,421.89,105.96,57.82,91.84,43.73,73.16,18.84,84.00,145.50,25.39,53.78,12.00,45.09,11.64,26.82,18.00,491.44,122.06,81.79,91.53,74.77,81.94,71.38,1.00,9.90,11.83,9.05,18.36,4.18,6.17,6.83,27.00,27.02,24.41,226.00,2.00,8.00,9.00,40.71,38.36,191.00,1.00,4.00,12.00,14.76,12.84,116.00,1.00,4.00,6.00,47.51,44.90,214.00,1.00,7.00,13.00,2.96,2.36,58.00,7.00,7.00,0.00,0,휴식 (Relax)
-41.75,-37.19,-27.69,-79.44,3.19,290.76,31.45,95.52,52.33,22.52,50.98,49.21,102.00,438.93,72.09,81.38,54.34,92.48,30.42,52.22,21.00,154.23,14.02,77.56,33.24,28.84,35.57,5.07,49.00,524.74,36.22,151.96,71.42,88.95,64.61,70.32,127.00,9.90,11.83,9.05,18.36,4.18,6.17,6.83,27.00,29.06,27.16,201.00,1.00,7.00,8.00,41.44,39.56,200.00,1.00,5.00,12.00,16.40,14.85,110.00,1.00,4.00,5.00,50.77,48.26,234.00,1.00,7.00,14.00,2.96,2.36,57.00,7.00,8.00,0.00,0,휴식 (Relax)
-51.38,-32.56,-20.38,-52.81,-1.69,300.71,70.35,102.04,78.60,63.66,49.23,69.07,16.00,441.55,40.16,86.52,24.19,63.47,60.18,23.07,95.00,158.27,37.50,80.31,39.82,18.88,16.67,32.01,12.00,534.59,93.02,169.42,74.33,55.83,43.83,36.45,21.00,8.10,10.51,10.65,20.12,2.28,7.72,8.70,25.00,31.04,28.88,208.00,1.00,6.00,9.00,41.21,39.01,200.00,1.00,5.00,12.00,16.82,15.38,115.00,1.00,5.00,5.00,51.18,49.06,243.00,1.00,7.00,14.00,2.99,2.48,60.00,8.00,7.00,0.00,0,휴식 (Relax)
-39.94,-56.06,-13.38,-65.62,-3.56,299.68,119.08,81.02,67.42,77.18,76.36,15.23,87.00,425.42,93.33,85.24,117.89,46.88,99.18,81.12,9.00,156.20,58.14,59.55,25.02,44.08,18.75,13.28,44.00,523.96,176.22,130.88,85.15,60.95,80.20,86.31,136.00,6.11,10.96,12.36,21.10,2.96,7.61,6.71,27.00,31.98,29.43,198.00,1.00,6.00,8.00,42.34,39.32,230.00,1.00,5.00,13.00,16.63,15.05,114.00,1.00,4.00,5.00,52.80,50.08,241.00,1.00,7.00,14.00,3.10,2.62,57.00,7.00,6.00,0.00,0,휴식 (Relax)
-26.94,-30.81,-20.38,-47.69,0.62,287.34,157.24,39.58,29.41,23.17,9.19,83.76,7.00,397.93,147.39,83.60,132.00,96.46,22.74,29.76,75.00,146.58,80.79,13.29,23.02,35.59,44.77,41.94,4.00,491.70,244.76,57.35,97.00,107.80,68.95,44.26,9.00,3.29,13.70,12.39,18.60,5.10,5.68,9.47,24.00,30.28,27.17,189.00,1.00,6.00,7.00,41.27,37.27,239.00,1.00,6.00,13.00,16.24,14.22,118.00,1.00,5.00,6.00,50.99,47.11,240.00,1.00,7.00,14.00,2.98,2.45,58.00,8.00,6.00,0.00,0,휴식 (Relax)
-37.06,-34.25,-13.06,-40.44,0.62,265.96,172.26,51.10,56.61,55.09,69.35,18.06,85.00,346.81,194.09,83.98,63.95,66.77,104.02,89.65,30.00,135.18,88.66,41.61,42.72,4.03,17.38,25.89,33.00,444.87,273.32,73.52,88.23,74.88,49.87,71.88,125.00,3.29,13.70,12.39,18.60,5.10,5.68,9.47,24.00,30.36,25.95,204.00,5.00,7.00,8.00,38.82,33.34,249.00,1.00,7.00,14.00,15.62,13.20,117.00,3.00,5.00,6.00,48.96,43.10,229.00,1.00,6.00,13.00,2.98,2.45,58.00,8.00,6.00,0.00,0,휴식 (Relax)
-32.19,-46.44,2.94,-4.38,-1.25,236.19,161.95,90.15,81.47,79.07,59.78,76.92,7.00,274.50,224.22,112.45,62.97,58.52,111.65,76.84,95.00,127.15,84.34,53.45,36.67,11.98,16.74,22.38,17.00,390.22,259.32,120.08,56.80,22.52,59.49,38.65,28.00,3.28,14.55,10.87,20.25,5.01,4.05,10.49,22.00,29.65,24.48,187.00,5.00,6.00,7.00,36.29,28.85,258.00,1.00,7.00,14.00,14.94,11.95,126.00,4.00,5.00,7.00,43.58,35.31,248.00,1.00,5.00,13.00,2.99,2.50,56.00,7.00,5.00,0.00,0,휴식 (Relax)
-5.62,7.56,-9.75,-27.12,-1.38,201.60,129.14,103.61,63.89,35.28,20.56,46.31,80.00,231.14,216.93,110.34,97.31,64.49,48.69,30.64,31.00,101.85,57.81,57.40,7.07,34.19,45.33,48.11,54.00,308.68,199.62,143.37,69.64,105.78,63.46,80.02,144.00,2.51,15.23,10.31,19.24,3.46,4.46,11.11,20.00,24.87,19.78,200.00,3.00,6.00,8.00,31.88,23.35,297.00,2.00,7.00,14.00,13.71,10.34,129.00,5.00,5.00,7.00,38.78,28.55,267.00,3.00,5.00,13.00,2.89,2.38,49.00,6.00,4.00,0.00,0,휴식 (Relax)
-8.19,-17.25,-2.00,-9.81,-2.94,162.90,78.59,84.61,21.47,39.33,73.38,57.78,9.00,165.04,171.19,67.14,77.88,25.11,127.70,103.77,114.00,68.36,16.76,42.77,51.01,33.43,19.05,5.27,10.00,215.54,109.98,129.46,112.65,106.94,66.35,63.44,27.00,8.38,9.08,17.23,13.45,3.88,11.30,13.19,13.00,19.89,15.26,191.00,3.00,7.00,7.00,28.13,19.41,305.00,5.00,7.00,14.00,9.25,7.50,111.00,5.00,6.00,6.00,29.08,19.79,255.00,5.00,6.00,13.00,2.84,2.30,48.00,6.00,4.00,0.00,0,휴식 (Relax)
1.81,-10.69,8.69,5.50,-0.81,132.93,34.90,48.93,30.68,59.02,38.89,55.93,57.00,79.32,84.39,46.49,36.62,84.54,110.64,15.62,9.00,58.95,5.87,33.66,51.97,23.17,12.15,16.09,21.00,141.56,32.00,86.70,94.15,28.92,32.00,31.38,112.00,10.37,7.10,18.29,12.21,3.05,9.78,12.99,15.00,15.80,11.81,190.00,6.00,8.00,7.00,16.91,13.36,251.00,5.00,7.00,13.00,8.15,6.64,121.00,6.00,6.00,7.00,19.07,13.81,232.00,6.00,6.00,13.00,2.83,2.27,50.00,6.00,4.00,0.00,0,휴식 (Relax)
-2.25,1.88,0.00,-0.62,-2.56,99.22,13.19,7.85,47.01,26.53,49.62,39.88,10.00,48.94,43.82,59.38,36.06,72.25,76.68,35.49,50.00,38.59,18.61,18.21,31.62,30.45,32.46,7.22,0.00,83.05,30.00,30.96,36.06,56.68,30.00,54.15,50.00,14.03,5.78,16.48,15.65,2.09,10.61,12.13,11.00,11.56,9.16,165.00,7.00,8.00,6.00,13.33,10.86,240.00,10.00,7.00,13.00,6.37,5.00,115.00,3.00,7.00,7.00,11.97,9.53,200.00,7.00,7.00,13.00,2.89,2.27,48.00,5.00,3.00,0.00,0,휴식 (Relax)
5.25,-6.25,5.00,10.00,-0.69,92.41,20.71,15.24,42.54,20.57,50.59,42.29,18.00,29.32,25.02,52.06,20.00,46.77,106.65,25.36,20.00,38.59,18.61,18.21,31.62,30.45,32.46,7.22,0.00,73.06,37.74,22.05,31.62,58.45,23.99,44.26,60.00,12.63,4.63,18.48,14.87,2.17,10.03,11.41,9.00,11.16,8.59,164.00,8.00,8.00,6.00,12.18,10.00,240.00,11.00,8.00,13.00,6.37,5.00,115.00,3.00,8.00,7.00,11.18,8.75,200.00,2.00,8.00,13.00,2.82,2.20,43.00,4.00,2.00,0.00,0,휴식 (Relax)
-0.31,4.38,-4.69,0.62,-0.38,69.92,37.76,34.59,25.24,43.00,33.89,30.56,5.00,23.56,31.22,43.12,10.00,55.86,100.13,21.57,30.00,34.23,20.53,23.04,36.40,25.46,33.59,12.20,5.00,63.70,40.81,25.74,41.23,48.55,23.12,54.06,50.00,14.99,9.49,17.07,10.30,4.06,6.48,9.12,4.00,9.72,7.02,148.00,8.00,8.00,5.00,11.71,9.38,240.00,12.00,9.00,13.00,6.49,5.35,125.00,7.00,9.00,8.00,10.88,8.36,200.00,6.00,8.00,13.00,2.60,1.81,34.00,3.00,1.00,0.00,0,휴식 (Relax)
6.25,13.75,-4.38,0.62,4.06,76.85,36.40,35.01,19.80,45.17,27.04,27.06,12.00,31.73,21.22,51.36,14.14,56.78,101.73,18.19,40.00,31.54,19.76,24.35,38.08,27.36,36.19,8.00,0.00,63.70,40.81,25.74,41.23,48.55,23.12,54.06,50.00,15.43,5.68,10.44,16.64,9.70,3.11,8.17,5.00,9.85,7.47,132.00,8.00,8.00,4.00,12.18,10.00,240.00,11.00,8.00,13.00,6.58,5.62,115.00,7.00,8.00,7.00,10.88,8.36,190.00,6.00,8.00,12.00,2.56,2.04,35.00,4.00,1.00,0.00,0,휴식 (Relax)
-6.81,-6.25,1.25,-8.12,-0.94,52.48,29.33,8.61,47.13,31.87,16.31,21.92,43.00,31.73,21.22,51.36,14.14,56.78,101.73,18.19,40.00,32.01,14.23,18.42,29.15,34.67,26.41,15.30,10.00,58.87,24.14,35.87,22.36,62.45,4.14,67.44,30.00,15.43,5.68,10.44,16.64,9.70,3.11,8.17,5.00,8.19,6.88,131.00,5.00,9.00,4.00,12.18,10.00,250.00,11.00,8.00,13.00,5.99,5.00,115.00,8.00,8.00,7.00,10.73,8.59,200.00,7.00,8.00,13.00,2.56,2.04,40.00,5.00,2.00,0.00,0,휴식 (Relax)
8.19,13.12,6.25,11.88,-0.94,52.48,29.33,8.61,47.13,31.87,16.31,21.92,43.00,41.45,23.67,41.72,10.00,48.89,111.53,12.26,50.00,32.01,14.23,18.42,29.15,34.67,26.41,15.30,10.00,58.87,24.14,35.87,22.36,62.45,4.14,67.44,30.00,15.43,5.68,10.44,16.64,9.70,3.11,8.17,5.00,8.19,6.88,146.00,6.00,10.00,5.00,12.61,10.62,260.00,11.00,8.00,13.00,5.99,5.00,110.00,7.00,8.00,6.00,10.73,8.59,210.00,8.00,9.00,13.00,2.56,2.04,33.00,4.00,1.00,0.00,0,휴식 (Relax)
15.69,2.50,5.62,1.88,-0.50,52.71,37.09,13.94,54.82,37.80,10.13,25.03,35.00,50.04,33.30,36.17,20.00,46.63,106.26,20.33,40.00,24.28,23.94,23.81,21.21,37.40,30.44,15.65,0.00,58.87,24.14,35.87,22.36,62.45,4.14,67.44,30.00,8.45,6.27,6.15,14.14,7.13,4.08,6.32,12.00,8.89,7.20,147.00,6.00,10.00,5.00,12.50,10.31,250.00,10.00,9.00,13.00,6.09,5.08,105.00,7.00,7.00,6.00,10.73,8.59,200.00,7.00,9.00,13.00,2.03,1.50,31.00,4.00,1.00,0.00,0,휴식 (Relax)
0.69,3.12,-4.69,0.62,1.69,52.71,37.09,13.94,54.82,37.80,10.13,25.03,35.00,44.32,25.36,30.69,22.36,37.08,109.35,30.31,30.00,19.81,27.08,22.26,18.03,32.40,31.88,12.76,5.00,42.08,31.35,47.41,22.36,43.64,20.42,63.86,10.00,5.66,9.26,3.20,11.18,4.41,3.50,7.36,9.00,8.89,7.20,147.00,5.00,10.00,5.00,12.10,9.77,250.00,10.00,9.00,13.00,5.72,4.73,110.00,8.00,7.00,7.00,9.66,7.11,180.00,6.00,8.00,12.00,1.72,1.22,28.00,3.00,1.00,0.00,0,휴식 (Relax)
13.81,13.12,14.06,28.75,-0.31,41.11,52.49,16.50,26.93,8.83,38.50,54.66,5.00,44.32,25.36,30.69,22.36,37.08,109.35,30.31,30.00,2.51,33.16,4.43,36.40,43.88,15.83,30.80,15.00,16.09,41.32,45.81,50.99,68.56,17.11,80.88,40.00,5.66,9.26,3.20,11.18,4.41,3.50,7.36,9.00,8.84,7.09,155.00,11.00,11.00,6.00,12.10,9.77,230.00,9.00,8.00,13.00,6.67,5.55,125.00,9.00,7.00,8.00,12.18,9.22,190.00,9.00,7.00,12.00,1.72,1.22,28.00,3.00,1.00,0.00,0,휴식 (Relax)
19.88,11.25,8.44,25.62,-0.44,38.72,61.60,38.37,50.54,38.51,22.48,26.42,36.00,46.52,22.11,49.50,44.72,36.27,81.92,21.68,60.00,9.68,32.97,5.58,40.31,48.35,25.75,20.91,5.00,36.61,62.56,31.73,64.03,87.30,32.95,40.39,10.00,6.56,9.35,2.80,9.22,4.42,1.60,5.44,11.00,9.94,7.88,155.00,11.00,10.00,6.00,11.66,9.06,210.00,8.00,7.00,12.00,7.01,6.13,120.00,9.00,7.00,7.00,12.73,10.47,180.00,9.00,7.00,11.00,1.62,1.16,24.00,2.00,1.00,0.00,0,휴식 (Relax)
33.44,39.69,-6.88,-5.00,4.38,53.10,64.81,53.64,76.61,47.30,28.30,57.46,3.00,62.40,42.78,56.53,72.95,71.35,101.84,30.71,19.00,14.00,30.20,8.91,36.06,43.43,22.09,25.26,10.00,45.21,64.01,26.25,56.57,77.73,26.51,49.24,0.00,7.78,11.90,1.54,10.30,7.07,3.79,8.43,8.00,13.14,9.62,156.00,11.00,10.00,6.00,15.52,11.64,231.00,7.00,7.00,12.00,6.58,5.86,130.00,10.00,7.00,8.00,12.25,10.00,210.00,10.00,7.00,12.00,1.93,1.44,29.00,3.00,1.00,0.00,0,휴식 (Relax)
15.06,45.88,39.06,114.38,8.88,75.49,61.26,52.16,62.39,14.78,43.10,41.07,35.00,100.64,82.81,53.57,64.51,52.95,123.40,49.45,80.00,59.42,21.38,47.92,41.73,71.86,52.96,37.58,39.00,170.72,117.12,111.77,105.85,163.73,134.65,88.83,138.00,12.26,19.68,7.00,17.72,5.95,7.52,3.63,16.00,12.64,9.41,172.00,3.00,11.00,7.00,19.30,14.52,221.00,7.00,6.00,12.00,11.91,8.06,164.00,10.00,7.00,8.00,31.73,19.19,308.00,4.00,7.00,12.00,2.98,2.19,32.00,3.00,1.00,0.00,0,휴식 (Relax)
42.69,82.06,31.31,97.31,-3.00,123.68,63.45,46.33,10.63,62.29,27.29,68.42,35.00,197.41,166.84,102.88,67.36,73.34,22.30,76.25,45.00,84.40,41.40,60.33,64.85,83.10,50.56,10.58,11.00,256.83,173.05,174.25,168.44,198.48,113.84,39.18,41.00,11.42,18.62,6.81,18.38,7.93,9.45,4.91,18.00,15.69,12.02,182.00,3.00,11.00,7.00,27.19,19.41,215.00,2.00,5.00,12.00,14.34,10.45,155.00,5.00,7.00,7.00,40.44,28.28,289.00,3.00,7.00,12.00,3.06,2.25,44.00,4.00,2.00,1.00,0,휴식 (Relax)
70.62,77.38,23.00,68.75,3.69,182.11,94.40,73.87,88.36,91.78,61.62,72.14,46.00,253.63,201.26,124.81,83.74,89.77,89.87,35.81,30.00,113.72,62.94,53.66,58.55,47.17,28.76,47.52,48.00,339.86,209.78,180.89,137.18,98.50,64.42,81.38,146.00,12.30,17.95,2.68,13.89,10.48,12.80,9.79,23.00,24.02,17.64,208.00,1.00,10.00,8.00,33.69,26.44,185.00,1.00,5.00,11.00,15.22,11.88,156.00,5.00,7.00,7.00,43.50,33.59,301.00,3.00,7.00,12.00,3.20,2.55,49.00,5.00,3.00,1.00,0,휴식 (Relax)
41.69,60.50,10.69,52.50,5.12,223.08,116.61,86.62,103.77,44.52,31.62,36.28,17.00,313.77,210.42,107.95,61.77,25.25,52.96,79.56,64.00,127.21,68.38,37.36,37.85,52.97,47.48,28.91,27.00,394.68,211.58,132.66,53.46,126.06,132.30,59.27,62.00,15.16,13.24,6.37,20.00,16.38,14.85,2.35,14.00,25.93,20.39,226.00,1.00,10.00,9.00,36.45,31.06,196.00,1.00,5.00,12.00,15.30,12.30,157.00,3.00,6.00,7.00,45.05,37.25,302.00,1.00,6.00,12.00,3.35,2.84,49.00,5.00,3.00,1.00,0,휴식 (Relax)
30.69,44.31,25.94,78.81,7.50,246.90,119.03,71.76,68.01,38.24,24.92,69.97,31.00,355.98,188.74,64.33,41.73,57.89,40.79,61.43,19.00,139.80,63.80,14.27,42.06,74.18,24.89,49.65,55.00,447.52,178.95,25.80,113.18,200.82,51.38,76.56,169.00,19.98,6.61,14.05,27.20,9.48,5.69,9.87,24.00,26.86,22.30,227.00,3.00,9.00,9.00,37.21,33.36,197.00,1.00,4.00,12.00,16.70,14.45,164.00,3.00,6.00,7.00,49.12,43.76,325.00,1.00,6.00,12.00,3.84,3.38,50.00,5.00,3.00,1.00,0,휴식 (Relax)
34.75,70.69,12.31,50.88,-2.62,267.42,102.68,27.22,40.79,91.79,64.20,10.13,32.00,395.27,130.45,49.90,81.34,101.68,104.60,73.39,87.00,146.35,50.21,36.39,66.10,54.75,33.60,39.51,29.00,478.32,127.30,85.48,178.62,133.30,85.12,81.06,74.00,20.75,5.00,14.15,26.08,8.24,7.68,8.34,22.00,27.62,24.19,228.00,3.00,9.00,9.00,40.77,37.23,220.00,1.00,4.00,12.00,16.71,14.77,171.00,3.00,6.00,8.00,49.88,46.41,337.00,1.00,6.00,12.00,3.72,3.28,58.00,6.00,4.00,2.00,0,휴식 (Relax)
47.19,42.81,22.25,55.88,2.06,280.91,74.53,47.26,113.28,69.76,28.05,82.13,41.00,416.66,67.21,104.48,100.00,59.64,40.40,81.69,7.00,148.36,24.85,63.11,64.33,49.16,48.02,43.88,62.00,490.96,63.10,163.03,148.05,110.61,113.76,45.64,170.00,21.56,0.17,10.08,22.02,13.19,5.83,11.29,27.00,29.68,26.66,238.00,3.00,8.00,10.00,40.59,37.46,232.00,1.00,5.00,12.00,17.53,15.84,173.00,1.00,7.00,8.00,51.18,48.89,338.00,1.00,7.00,12.00,3.70,3.30,63.00,7.00,5.00,2.00,0,휴식 (Relax)
26.25,58.19,3.62,49.25,-1.06,283.10,55.64,87.34,125.67,15.93,36.83,30.75,22.00,424.61,56.48,140.85,71.59,49.22,84.85,48.77,99.00,144.93,6.84,66.82,39.22,72.61,22.03,47.95,36.00,485.17,60.88,191.37,42.19,207.97,8.61,107.77,64.00,21.43,2.12,8.30,23.35,12.78,4.64,10.61,25.00,29.24,26.50,248.00,3.00,8.00,11.00,41.96,38.94,244.00,1.00,5.00,12.00,16.71,14.88,190.00,1.00,8.00,9.00,51.12,49.25,338.00,1.00,7.00,12.00,3.63,3.20,61.00,7.00,5.00,2.00,0,휴식 (Relax)
22.75,31.56,6.69,32.31,3.81,274.87,53.64,95.93,79.21,71.90,47.40,66.51,34.00,416.85,101.19,128.41,31.32,83.00,86.90,73.66,25.00,134.78,28.46,48.43,41.15,56.12,48.87,32.74,67.00,462.41,123.93,156.03,107.54,165.40,103.21,13.31,159.00,20.71,3.85,8.79,24.84,11.09,6.57,10.53,27.00,28.82,26.00,233.00,1.00,7.00,10.00,41.61,38.44,246.00,1.00,5.00,12.00,15.78,13.77,190.00,1.00,9.00,9.00,49.68,47.35,339.00,1.00,6.00,12.00,3.73,3.34,61.00,7.00,6.00,2.00,0,휴식 (Relax)
10.81,36.00,10.69,46.38,1.50,254.50,70.64,71.84,57.56,74.49,16.14,54.71,29.00,387.18,159.98,62.56,75.54,55.30,35.02,39.84,130.00,119.08,53.09,16.43,71.31,38.79,45.21,56.08,35.00,412.27,200.96,49.16,195.86,95.53,93.48,140.27,32.00,17.82,7.43,13.78,21.95,15.55,3.58,13.06,22.00,26.14,23.41,226.00,1.00,7.00,9.00,39.47,36.38,237.00,1.00,5.00,12.00,15.22,12.94,191.00,5.00,9.00,9.00,47.53,44.22,341.00,1.00,6.00,12.00,3.66,3.25,63.00,7.00,7.00,2.00,0,휴식 (Relax)
7.81,20.38,3.38,50.00,1.19,230.53,84.08,32.75,105.30,27.02,35.40,40.52,19.00,354.08,183.98,21.84,99.25,25.66,84.73,59.49,56.00,105.18,62.89,21.29,69.07,59.66,29.40,35.39,56.00,352.40,248.02,69.18,170.06,211.06,28.78,55.86,150.00,14.26,10.07,16.45,17.80,16.33,4.07,8.91,27.00,24.40,21.02,218.00,1.00,6.00,9.00,37.76,33.72,238.00,1.00,6.00,12.00,14.65,12.05,197.00,5.00,10.00,9.00,46.70,41.25,342.00,1.00,6.00,12.00,3.56,3.09,63.00,7.00,7.00,2.00,0,휴식 (Relax)
-17.19,-35.50,-36.38,-78.00,2.75,219.01,82.22,17.43,105.30,33.34,23.19,45.67,3.00,334.01,178.73,27.46,79.06,15.73,57.65,30.39,86.00,122.88,68.70,7.90,89.05,71.19,10.03,16.07,76.00,352.40,248.02,69.18,170.06,211.06,28.78,55.86,150.00,8.79,12.26,14.59,22.80,9.37,8.10,15.68,20.00,23.36,19.77,227.00,2.00,5.00,9.00,35.21,31.38,292.00,2.00,6.00,13.00,16.80,13.45,228.00,6.00,9.00,9.00,46.70,41.25,470.00,2.00,7.00,13.00,3.49,2.94,63.00,7.00,7.00,2.00,0,휴식 (Relax)
-55.69,-37.38,-40.44,-68.62,5.25,226.40,88.16,19.10,113.28,30.03,25.40,52.14,5.00,307.68,156.80,32.24,57.01,14.65,71.02,60.37,56.00,137.86,82.96,22.56,90.80,78.80,24.66,28.71,61.00,343.18,240.08,63.03,169.24,205.17,25.70,61.94,160.00,4.24,13.40,7.59,28.43,15.11,2.08,8.01,28.00,24.45,20.39,251.00,2.00,5.00,9.00,32.36,29.03,282.00,2.00,6.00,12.00,18.57,14.65,213.00,2.00,8.00,8.00,45.71,40.39,450.00,2.00,8.00,13.00,3.70,2.97,64.00,7.00,7.00,2.00,0,휴식 (Relax)
-54.25,-57.38,-33.56,-76.75,-0.06,249.40,111.10,17.04,117.18,52.99,8.75,29.87,18.00,307.68,156.80,32.24,57.01,14.65,71.02,60.37,56.00,166.40,110.24,45.59,61.68,49.99,24.86,22.87,91.00,373.18,269.90,92.59,139.29,176.00,18.35,89.82,190.00,5.43,12.67,3.81,25.55,16.70,3.67,12.05,23.00,26.88,22.19,243.00,2.00,5.00,9.00,32.36,29.03,302.00,2.00,6.00,13.00,20.44,17.23,213.00,2.00,9.00,8.00,48.21,42.97,460.00,2.00,9.00,14.00,3.49,2.58,69.00,5.00,8.00,2.00,0,휴식 (Relax)
-52.31,-57.38,-36.69,-74.88,7.12,278.23,133.58,26.28,87.66,48.64,38.17,60.84,13.00,307.68,156.80,32.24,57.01,14.65,71.02,60.37,56.00,190.70,125.42,53.26,60.21,59.21,6.24,19.94,61.00,401.17,289.70,104.17,140.58,182.58,38.64,59.98,160.00,15.69,10.37,15.69,15.81,3.87,12.02,10.81,36.00,29.48,24.61,227.00,2.00,4.00,8.00,32.36,29.03,271.00,2.00,6.00,12.00,22.42,19.80,203.00,2.00,9.00,7.00,50.52,45.55,430.00,2.00,8.00,13.00,3.72,2.86,72.00,6.00,9.00,2.00,0,휴식 (Relax)
-55.94,-46.06,-35.75,-65.50,3.81,319.93,149.47,55.44,85.16,12.45,32.64,24.90,41.00,324.59,158.79,42.86,74.71,7.51,50.24,70.71,35.00,199.55,124.10,46.01,74.97,68.93,14.78,20.96,76.00,393.89,290.12,110.47,130.70,175.02,48.27,51.52,150.00,19.71,9.90,18.90,20.12,6.48,8.00,7.48,31.00,32.80,28.83,218.00,2.00,3.00,7.00,33.79,30.67,271.00,2.00,6.00,12.00,23.59,21.09,154.00,1.00,8.00,6.00,49.64,44.69,312.00,1.00,7.00,13.00,3.84,3.06,70.00,5.00,9.00,2.00,0,휴식 (Relax)
-47.00,-44.12,-27.06,-58.12,3.81,337.05,143.14,60.99,115.32,39.60,1.69,32.85,10.00,342.13,142.90,41.44,93.34,25.82,72.60,69.62,66.00,222.62,90.78,13.06,87.66,27.08,45.49,45.76,17.00,454.32,216.57,37.61,161.40,85.44,148.77,100.31,32.00,19.71,9.90,18.90,20.12,6.48,8.00,7.48,31.00,34.66,31.25,193.00,1.00,4.00,6.00,35.45,33.09,227.00,1.00,6.00,11.00,23.50,22.17,153.00,1.00,8.00,6.00,50.06,47.34,301.00,1.00,7.00,12.00,3.84,3.06,58.00,4.00,8.00,1.00,0,휴식 (Relax)
-49.62,-48.81,-28.44,-51.44,0.25,359.60,99.34,53.56,122.38,55.78,70.88,65.41,80.00,372.11,68.76,60.62,68.68,73.93,101.26,74.68,19.00,237.46,45.32,63.10,49.65,37.92,36.00,37.69,75.00,492.87,119.29,144.60,99.46,84.10,134.95,8.84,139.00,23.46,1.72,9.91,12.73,2.75,15.78,2.79,22.00,36.73,34.17,167.00,1.00,4.00,5.00,36.77,35.21,237.00,1.00,6.00,12.00,23.69,23.01,152.00,1.00,9.00,6.00,50.23,48.76,279.00,1.00,7.00,11.00,3.21,2.53,54.00,4.00,8.00,1.00,0,휴식 (Relax)
-36.62,-52.88,-15.81,-74.25,-1.75,374.87,35.27,78.82,49.98,57.93,69.40,31.46,16.00,391.07,26.32,108.62,34.67,74.63,6.27,103.05,76.00,240.58,10.08,82.26,16.76,56.51,7.51,20.72,33.00,514.91,23.34,217.06,28.43,172.20,67.28,111.09,24.00,23.46,1.72,9.91,12.73,2.75,15.78,2.79,22.00,35.33,33.80,149.00,1.00,5.00,4.00,38.09,36.62,236.00,1.00,6.00,12.00,23.26,22.69,151.00,1.00,9.00,6.00,53.06,51.75,298.00,1.00,6.00,11.00,3.21,2.53,54.00,4.00,8.00,1.00,0,휴식 (Relax)
-45.31,-57.00,-9.19,-67.75,-8.19,375.62,67.94,103.86,41.63,50.90,15.95,61.32,69.00,395.67,115.10,128.96,80.41,32.09,98.33,37.93,18.00,235.99,18.27,74.46,42.30,34.84,25.62,32.14,59.00,516.19,120.36,214.46,127.28,118.04,159.78,35.24,128.00,26.53,10.56,7.60,9.00,11.56,15.18,9.62,31.00,36.14,34.81,155.00,1.00,5.00,5.00,40.04,37.88,235.00,1.00,5.00,12.00,23.05,22.21,139.00,1.00,8.00,5.00,55.34,53.72,265.00,1.00,5.00,10.00,3.84,3.06,58.00,4.00,7.00,1.00,0,휴식 (Relax)
-27.38,-51.81,-1.81,-40.44,-5.56,363.88,108.31,95.44,88.57,28.03,55.61,6.72,6.00,385.78,177.35,108.64,92.42,54.87,74.65,104.96,65.00,219.74,49.28,38.82,60.11,41.08,19.65,12.16,21.00,496.81,225.45,136.38,160.24,68.77,79.20,109.87,11.00,34.95,18.70,6.40,1.00,11.14,8.51,1.04,21.00,35.91,34.30,161.00,1.00,6.00,6.00,41.68,38.52,202.00,1.00,4.00,11.00,21.34,19.77,132.00,1.00,7.00,4.00,53.40,50.55,263.00,1.00,4.00,10.00,3.98,3.13,50.00,3.00,7.00,0.00,0,휴식 (Relax)
-22.94,-53.94,-0.19,-34.50,-5.56,335.98,138.78,53.35,86.54,44.58,37.22,66.88,77.00,355.43,240.30,61.23,74.28,104.05,74.10,22.14,61.00,202.75,64.98,24.79,45.88,58.47,6.90,25.76,47.00,464.02,281.00,41.79,103.74,154.77,91.35,71.46,106.00,34.95,18.70,6.40,1.00,11.14,8.51,1.04,21.00,34.61,32.17,144.00,1.00,5.00,5.00,40.70,35.41,190.00,1.00,3.00,11.00,20.40,17.76,120.00,1.00,6.00,3.00,52.28,47.44,252.00,1.00,4.00,9.00,3.98,3.13,45.00,3.00,6.00,0.00,0,휴식 (Relax)
-9.94,-28.69,-2.50,-37.25,-5.25,290.86,153.57,30.60,33.00,67.85,43.15,36.49,3.00,326.37,253.35,67.89,59.17,70.13,98.98,62.03,23.00,166.64,79.15,65.33,16.00,30.10,36.87,17.46,4.00,404.44,302.33,114.19,35.36,122.46,154.08,99.84,10.00,39.76,17.16,1.47,4.00,13.75,4.17,5.98,16.00,30.36,27.16,135.00,1.00,5.00,4.00,39.29,32.11,188.00,1.00,3.00,11.00,17.93,15.00,108.00,3.00,5.00,2.00,49.85,42.12,262.00,1.00,4.00,10.00,4.21,3.41,42.00,3.00,5.00,0.00,0,휴식 (Relax)
-6.00,-40.81,3.81,-1.88,-0.44,245.49,145.65,69.56,30.00,38.16,48.40,38.34,60.00,272.22,227.09,116.83,80.78,62.34,27.27,71.18,103.00,146.37,78.23,79.06,37.00,18.50,24.94,10.34,25.00,347.05,279.66,184.20,118.23,43.61,70.35,94.02,76.00,37.42,19.70,3.40,5.00,12.69,5.10,8.87,13.00,27.14,22.50,135.00,1.00,5.00,4.00,35.45,27.37,186.00,1.00,3.00,11.00,16.90,13.36,108.00,4.00,6.00,2.00,45.51,34.30,281.00,1.00,4.00,10.00,4.12,3.24,42.00,2.00,4.00,0.00,0,휴식 (Relax)
4.50,22.88,10.12,12.19,-8.75,196.88,117.74,86.52,63.53,20.54,7.79,45.80,4.00,249.09,201.04,117.51,76.12,73.60,33.85,28.57,60.00,125.52,66.76,74.30,42.54,39.23,23.72,13.62,4.00,293.06,231.97,190.71,126.46,105.74,114.43,66.15,11.00,43.57,9.52,11.69,7.62,2.37,16.04,18.96,2.00,22.83,17.25,134.00,2.00,5.00,4.00,32.02,24.14,236.00,4.00,3.00,11.00,15.27,11.75,107.00,2.00,5.00,2.00,41.53,27.97,269.00,2.00,4.00,10.00,4.68,3.72,49.00,3.00,5.00,0.00,0,휴식 (Relax)
75.94,45.94,59.62,109.50,4.94,221.47,140.58,101.64,78.49,31.94,31.79,69.79,21.00,224.42,168.97,92.00,43.97,41.46,3.40,58.78,93.00,146.83,89.78,97.48,64.51,54.97,26.53,34.72,20.00,303.71,242.96,199.48,136.70,108.51,117.08,62.47,0.00,42.32,11.66,9.35,7.28,2.86,20.05,23.10,3.00,26.87,19.59,207.00,2.00,5.00,5.00,27.79,21.82,246.00,4.00,3.00,11.00,19.45,13.59,152.00,4.00,5.00,3.00,43.22,29.00,356.00,2.00,3.00,10.00,4.85,3.95,63.00,3.00,6.00,1.00,0,휴식 (Relax)
50.94,88.56,35.25,99.19,-2.88,221.47,140.58,101.64,78.49,31.94,31.79,69.79,21.00,244.98,188.32,112.70,54.67,45.23,24.04,77.21,115.00,150.93,94.98,101.09,66.71,56.94,28.26,30.31,14.00,292.83,234.92,190.17,133.24,100.32,112.25,56.48,11.00,41.84,12.43,7.20,4.47,5.27,20.91,25.02,6.00,26.87,19.59,208.00,2.00,6.00,5.00,31.42,23.37,236.00,4.00,3.00,11.00,20.06,14.06,135.00,3.00,6.00,3.00,41.53,27.97,239.00,1.00,3.00,10.00,4.91,4.16,69.00,5.00,7.00,1.00,0,휴식 (Relax)
80.38,73.50,26.69,81.56,0.25,270.07,170.21,118.21,56.04,25.34,61.41,121.98,78.00,309.93,217.59,134.65,41.88,19.82,48.45,62.03,50.00,170.30,113.35,88.63,33.60,15.94,18.29,59.10,55.00,387.48,259.55,200.01,43.05,42.45,41.16,71.62,117.00,40.88,14.29,5.30,5.66,5.73,21.81,24.41,4.00,33.23,25.02,202.00,1.00,7.00,5.00,36.56,28.31,247.00,2.00,4.00,12.00,21.00,15.48,136.00,3.00,5.00,3.00,46.34,35.41,240.00,1.00,2.00,10.00,4.88,4.06,69.00,6.00,7.00,1.00,0,휴식 (Relax)
43.44,38.50,35.06,75.56,-4.12,313.80,176.21,95.05,7.28,60.99,76.49,84.18,15.00,339.30,214.20,119.71,23.19,29.34,24.73,49.45,82.00,190.95,119.29,37.32,36.89,66.14,57.95,50.51,3.00,459.91,244.31,145.88,62.97,53.67,127.60,77.05,21.00,33.87,23.74,11.20,14.56,4.27,12.50,25.24,14.00,34.84,28.97,235.00,1.00,8.00,6.00,37.83,31.06,260.00,1.00,4.00,12.00,22.31,17.79,143.00,1.00,5.00,4.00,50.14,41.91,230.00,1.00,2.00,9.00,4.81,4.11,69.00,7.00,7.00,1.00,0,휴식 (Relax)
54.50,45.56,31.75,79.25,2.75,355.32,153.99,31.31,77.32,55.03,8.68,114.06,94.00,386.57,173.67,56.74,40.11,40.40,60.03,97.31,19.00,204.08,108.21,23.78,79.31,77.40,26.21,38.08,50.00,529.11,185.20,29.52,151.00,110.82,66.81,57.14,138.00,35.63,22.80,9.74,15.23,5.39,10.60,25.11,16.00,37.23,33.31,251.00,1.00,9.00,7.00,39.46,34.30,271.00,1.00,5.00,13.00,23.32,19.84,138.00,1.00,5.00,4.00,53.58,48.16,241.00,1.00,2.00,10.00,4.85,4.22,68.00,8.00,7.00,1.00,0,휴식 (Relax)
27.06,72.56,-2.81,20.38,-3.44,373.19,119.30,23.70,90.74,16.42,59.21,108.41,39.00,441.57,82.63,88.33,106.78,73.98,92.23,6.52,115.00,205.26,92.76,47.20,73.25,52.97,18.46,44.62,25.00,552.47,134.63,50.75,139.03,75.26,42.32,57.03,76.00,22.70,22.27,12.64,6.08,11.86,12.73,23.06,29.00,37.35,34.55,268.00,1.00,9.00,8.00,43.45,38.87,294.00,1.00,5.00,13.00,22.32,18.87,171.00,2.00,5.00,5.00,52.95,48.28,286.00,1.00,3.00,10.00,4.39,3.94,72.00,9.00,8.00,1.00,0,휴식 (Relax)
0.69,-4.06,10.62,48.06,9.38,375.44,83.31,51.54,61.85,22.42,37.07,94.61,77.00,444.72,73.17,96.96,103.45,67.19,82.34,14.56,105.00,197.70,53.53,66.79,32.56,71.14,52.14,26.67,66.00,562.83,49.87,128.35,54.08,55.30,113.31,50.06,161.00,25.61,23.93,14.05,3.16,12.14,15.73,22.44,32.00,36.25,32.85,285.00,1.00,8.00,9.00,43.32,38.32,370.00,2.00,6.00,14.00,21.31,18.59,182.00,3.00,5.00,6.00,53.77,50.30,319.00,1.00,4.00,11.00,4.72,4.12,85.00,10.00,9.00,2.00,0,휴식 (Relax)
-22.81,15.00,-34.75,-36.94,1.69,373.29,75.98,51.75,55.87,22.15,33.67,99.23,69.00,443.88,66.47,98.49,74.32,59.44,103.70,16.44,136.00,202.49,62.88,71.12,32.25,67.52,61.24,26.48,76.00,562.83,49.87,128.35,54.08,55.30,113.31,50.06,161.00,21.76,19.00,9.19,6.71,8.52,19.73,20.33,37.00,35.88,32.41,301.00,2.00,7.00,10.00,43.34,38.50,381.00,3.00,7.00,14.00,22.18,19.06,223.00,4.00,5.00,7.00,53.77,50.30,404.00,2.00,5.00,12.00,4.44,3.81,90.00,10.00,10.00,2.00,0,휴식 (Relax)
-23.75,-7.25,-25.06,-65.06,-2.88,364.35,72.17,39.23,67.20,8.43,47.62,86.61,84.00,436.77,81.91,82.76,84.40,78.33,103.84,7.87,116.00,198.55,60.86,66.16,37.22,62.54,63.32,25.84,81.00,580.00,54.94,154.95,24.19,84.58,107.65,56.27,131.00,19.98,13.81,11.01,7.21,15.42,19.43,25.49,30.00,35.07,31.69,294.00,2.00,6.00,10.00,42.86,37.25,392.00,4.00,8.00,14.00,21.79,18.83,223.00,4.00,6.00,7.00,55.52,51.95,404.00,2.00,5.00,12.00,4.40,3.73,93.00,11.00,10.00,2.00,0,휴식 (Relax)
-24.25,-46.62,-15.38,-36.94,4.00,357.58,77.15,32.42,72.25,15.96,40.65,94.43,76.00,443.54,72.09,91.91,76.58,85.00,111.78,17.27,106.00,193.75,63.01,65.04,38.08,65.04,65.07,28.28,76.00,554.60,70.75,134.43,40.80,95.62,129.62,81.57,101.00,19.48,13.74,9.05,8.94,16.06,21.05,27.43,28.00,34.66,31.31,280.00,2.00,5.00,9.00,43.47,37.88,422.00,4.00,8.00,14.00,21.53,18.59,228.00,4.00,6.00,8.00,53.77,50.30,434.00,2.00,6.00,13.00,4.49,3.88,93.00,11.00,10.00,2.00,0,휴식 (Relax)
-39.69,-37.25,-20.06,-57.56,1.56,350.69,84.13,34.65,67.18,16.47,42.76,87.56,83.00,434.45,78.04,92.47,70.46,81.59,121.66,27.18,96.00,198.73,58.26,60.93,42.95,62.26,69.71,32.55,71.00,544.77,80.75,139.53,35.85,101.98,119.69,71.60,111.00,16.59,10.34,10.56,13.60,21.61,14.25,20.55,35.00,34.12,30.98,281.00,2.00,5.00,9.00,42.86,37.25,432.00,4.00,9.00,15.00,21.79,18.83,228.00,4.00,7.00,8.00,53.04,49.76,434.00,2.00,7.00,13.00,4.32,3.69,93.00,11.00,11.00,2.00,0,휴식 (Relax)
-39.25,-28.50,-28.81,-75.69,-3.44,357.54,78.99,27.65,72.35,23.45,40.55,81.86,90.00,414.47,78.68,111.81,55.17,101.51,110.91,13.51,116.00,216.53,41.24,45.12,51.04,82.06,52.09,12.87,91.00,574.17,62.32,110.10,64.54,130.68,104.12,44.09,141.00,16.59,10.34,10.56,13.60,21.61,14.25,20.55,35.00,34.58,31.31,281.00,2.00,5.00,9.00,41.74,36.00,432.00,4.00,8.00,15.00,22.88,19.77,238.00,4.00,7.00,9.00,55.17,51.40,454.00,2.00,7.00,14.00,4.32,3.69,98.00,12.00,11.00,2.00,0,휴식 (Relax)
-45.38,-58.50,-8.81,-55.06,-3.44,369.16,80.11,26.27,64.14,21.24,53.02,89.80,76.00,414.47,78.68,111.81,55.17,101.51,110.91,13.51,116.00,216.53,41.24,45.12,51.04,82.06,52.09,12.87,91.00,582.51,66.00,108.84,63.13,129.74,101.05,50.75,131.00,16.59,10.34,10.56,13.60,21.61,14.25,20.55,35.00,35.54,31.97,280.00,2.00,5.00,9.00,41.74,36.00,442.00,4.00,8.00,15.00,22.88,19.77,253.00,4.00,7.00,10.00,55.74,51.95,464.00,2.00,7.00,14.00,4.32,3.69,98.00,12.00,11.00,2.00,0,휴식 (Relax)
-30.88,-57.25,-9.12,-55.06,-3.44,373.71,86.75,34.11,57.43,13.57,45.68,87.96,84.00,429.45,98.48,123.49,43.86,115.45,93.77,18.09,96.00,214.94,38.34,40.12,54.04,86.06,49.54,17.43,86.00,582.51,66.00,108.84,63.13,129.74,101.05,50.75,131.00,16.59,10.34,10.56,13.60,21.61,14.25,20.55,35.00,35.92,32.36,294.00,2.00,6.00,10.00,43.15,37.25,422.00,4.00,7.00,14.00,22.72,19.53,248.00,4.00,7.00,10.00,55.74,51.95,434.00,2.00,7.00,13.00,4.32,3.69,93.00,11.00,10.00,2.00,0,휴식 (Relax)
-22.88,-29.12,-9.12,-25.06,-3.12,373.71,86.75,34.11,57.43,13.57,45.68,87.96,84.00,416.74,76.96,95.22,20.59,143.14,64.57,41.34,66.00,214.94,38.34,40.12,54.04,86.06,49.54,17.43,86.00,582.51,66.00,108.84,63.13,129.74,101.05,50.75,131.00,21.47,10.42,15.04,10.00,24.60,9.57,20.09,30.00,35.92,32.36,295.00,2.00,6.00,10.00,41.23,35.38,391.00,3.00,7.00,14.00,22.72,19.53,243.00,4.00,7.00,10.00,55.74,51.95,454.00,2.00,7.00,13.00,4.37,3.77,84.00,10.00,9.00,2.00,0,휴식 (Relax)
36.62,42.19,26.81,66.50,6.00,387.18,73.90,80.57,34.21,51.92,55.06,73.01,28.00,418.42,92.30,104.40,26.93,147.81,93.33,32.71,109.00,231.86,20.60,67.60,42.01,87.16,25.73,43.22,53.00,604.71,90.12,158.80,24.33,130.18,95.16,83.24,44.00,12.39,21.24,20.45,8.49,22.34,14.03,20.04,16.00,36.92,34.30,285.00,2.00,5.00,10.00,42.65,38.06,444.00,4.00,7.00,14.00,23.73,21.34,230.00,4.00,6.00,10.00,58.20,55.50,453.00,2.00,6.00,13.00,4.26,3.75,80.00,10.00,8.00,2.00,0,휴식 (Relax)
30.19,40.81,27.94,87.81,6.00,371.44,56.19,66.18,12.04,60.94,59.03,69.74,3.00,429.08,113.97,126.39,40.61,126.06,92.95,22.02,87.00,217.00,14.40,55.72,24.02,73.23,36.20,57.53,35.00,612.03,101.12,168.70,28.30,138.51,85.07,77.81,55.00,12.39,21.24,20.45,8.49,22.34,14.03,20.04,16.00,35.10,32.54,268.00,2.00,5.00,9.00,43.62,39.44,400.00,4.00,6.00,13.00,21.93,20.07,206.00,4.00,6.00,9.00,59.16,56.19,464.00,2.00,6.00,13.00,4.26,3.75,72.00,9.00,7.00,2.00,0,휴식 (Relax)
53.62,73.12,11.62,55.50,0.81,393.29,81.01,53.32,17.89,50.96,54.13,65.60,22.00,437.89,123.03,130.75,34.93,132.18,84.71,28.93,98.00,206.31,12.47,62.37,26.00,83.40,25.23,51.84,46.00,602.11,93.83,169.55,38.08,148.29,74.83,77.90,66.00,13.98,22.68,20.78,6.71,20.01,16.12,18.97,13.00,36.92,34.30,260.00,2.00,5.00,9.00,44.68,40.12,422.00,4.00,6.00,13.00,21.40,19.30,217.00,4.00,5.00,10.00,58.46,55.50,486.00,2.00,7.00,13.00,4.23,3.66,74.00,8.00,6.00,2.00,0,휴식 (Relax)
38.19,61.44,27.88,86.44,2.69,368.42,63.64,78.30,36.67,26.91,41.13,61.10,47.00,448.58,125.75,123.68,25.24,138.27,95.71,18.92,87.00,218.18,21.24,51.16,15.62,84.59,19.72,52.46,58.00,635.06,96.16,138.17,39.36,149.81,69.48,97.44,99.00,15.74,22.31,19.14,8.54,19.44,16.13,20.29,15.00,34.74,32.54,244.00,2.00,5.00,9.00,45.53,40.81,400.00,4.00,6.00,13.00,22.17,20.14,222.00,4.00,6.00,10.00,60.91,57.56,519.00,2.00,8.00,14.00,4.28,3.77,71.00,7.00,6.00,2.00,0,휴식 (Relax)
45.19,69.00,-7.75,22.50,5.06,383.79,63.25,73.21,33.00,19.43,27.96,57.21,63.00,502.98,110.89,72.24,72.12,85.61,69.76,73.78,142.00,186.50,18.24,63.36,30.46,56.24,51.33,79.45,96.00,604.01,116.65,162.30,18.11,122.88,96.83,128.48,132.00,25.73,15.53,11.77,15.26,29.37,10.81,11.88,5.00,35.81,33.66,236.00,2.00,5.00,8.00,48.69,44.25,400.00,4.00,7.00,13.00,21.06,18.44,260.00,5.00,7.00,11.00,59.61,55.50,574.00,2.00,8.00,14.00,4.34,3.70,67.00,6.00,5.00,2.00,0,휴식 (Relax)
-21.38,-24.69,-14.75,-15.06,7.69,331.01,121.30,43.64,38.00,88.24,43.07,66.24,134.00,458.11,154.10,85.84,76.06,99.85,109.40,124.82,195.00,167.02,64.68,56.16,45.61,103.45,22.64,33.81,48.00,543.45,203.65,161.09,105.02,203.84,28.70,42.62,45.00,31.43,9.85,15.96,13.15,27.05,16.16,17.60,11.00,34.31,31.55,283.00,3.00,6.00,8.00,48.68,44.02,464.00,5.00,7.00,13.00,19.93,16.56,237.00,3.00,6.00,11.00,57.21,51.95,562.00,3.00,7.00,14.00,4.74,4.10,63.00,5.00,4.00,2.00,0,휴식 (Relax)
-32.50,-9.94,-31.62,-59.94,-5.31,313.58,180.51,38.01,72.72,79.54,42.89,75.12,72.00,420.81,228.17,75.88,148.49,27.12,39.87,75.51,119.00,173.84,89.50,36.08,36.50,100.26,22.20,67.73,82.00,523.38,267.95,108.03,134.47,211.51,70.28,118.29,127.00,31.43,9.85,15.96,13.15,27.05,16.16,17.60,11.00,34.69,31.25,274.00,3.00,6.00,8.00,46.10,39.92,398.00,4.00,7.00,13.00,21.53,17.86,240.00,3.00,5.00,11.00,59.11,53.67,579.00,3.00,6.00,14.00,4.74,4.10,63.00,5.00,4.00,2.00,0,휴식 (Relax)
-16.06,-38.06,-10.69,-34.00,2.06,318.97,193.35,36.47,63.79,56.90,19.90,57.60,95.00,420.59,246.37,58.01,145.01,36.61,51.71,80.49,149.00,195.07,99.66,6.18,7.81,71.48,36.90,39.96,51.00,552.01,303.01,13.90,84.59,117.42,91.08,68.75,32.00,29.03,13.43,17.78,13.60,21.93,15.02,12.80,5.00,34.91,31.46,266.00,2.00,7.00,8.00,47.07,41.33,407.00,3.00,7.00,13.00,21.19,16.53,213.00,2.00,5.00,11.00,58.04,50.50,514.00,2.00,7.00,14.00,4.34,3.70,62.00,6.00,5.00,2.00,0,휴식 (Relax)
-30.12,-34.88,-11.62,-33.38,0.06,328.44,191.80,26.05,49.34,66.54,32.03,71.49,80.00,443.87,247.35,7.53,94.02,73.99,75.88,96.91,98.00,181.13,105.08,20.60,21.59,61.05,51.80,34.30,36.00,559.10,300.62,17.04,74.67,123.18,81.08,65.76,42.00,29.03,13.43,17.78,13.60,21.93,15.02,12.80,5.00,35.52,32.05,281.00,2.00,8.00,9.00,47.81,41.70,386.00,2.00,7.00,12.00,20.34,16.06,203.00,2.00,5.00,10.00,58.35,50.89,484.00,2.00,6.00,13.00,4.34,3.70,59.00,5.00,5.00,2.00,0,휴식 (Relax)
-29.19,-51.75,2.12,-44.00,-4.94,341.83,180.79,11.63,55.76,73.56,30.92,56.51,95.00,484.56,220.15,50.62,107.42,48.62,25.99,61.80,148.00,161.13,124.06,31.98,25.81,54.49,42.10,36.07,56.00,549.84,309.14,7.61,74.00,118.42,74.45,60.46,52.00,29.03,13.43,17.78,13.60,21.93,15.02,12.80,5.00,36.10,32.63,281.00,2.00,8.00,9.00,49.62,43.66,366.00,2.00,6.00,12.00,19.89,15.70,208.00,3.00,4.00,10.00,57.83,50.50,464.00,2.00,5.00,13.00,4.34,3.70,57.00,5.00,4.00,2.00,0,휴식 (Relax)
-7.62,-23.00,-12.56,-61.50,-8.25,334.85,187.79,13.40,50.00,80.45,36.86,50.31,102.00,464.96,239.31,43.80,90.44,66.73,20.74,47.57,168.00,165.76,119.68,33.72,30.02,49.63,44.62,36.31,61.00,589.84,270.47,39.77,114.00,78.55,88.29,38.96,92.00,38.05,2.50,11.79,24.33,18.59,10.66,13.41,16.00,35.97,32.36,288.00,2.00,8.00,9.00,48.80,42.88,386.00,2.00,7.00,12.00,20.05,15.90,218.00,4.00,5.00,11.00,59.64,52.06,464.00,2.00,5.00,13.00,4.80,4.22,59.00,5.00,4.00,2.00,0,휴식 (Relax)
-23.06,-61.12,-7.88,-50.88,-3.94,328.22,192.76,10.66,54.49,79.21,30.19,54.90,95.00,494.47,213.59,23.55,77.20,90.10,48.56,26.33,198.00,162.22,121.13,28.72,27.86,46.80,49.52,35.28,66.00,599.08,265.75,42.90,114.44,82.01,78.53,45.12,82.00,43.01,3.09,6.92,25.63,14.20,7.78,13.89,11.00,35.65,32.09,303.00,2.00,9.00,10.00,50.58,44.05,416.00,2.00,7.00,12.00,19.89,15.70,213.00,4.00,5.00,10.00,60.13,52.45,454.00,2.00,5.00,13.00,4.90,4.44,58.00,4.00,5.00,2.00,0,휴식 (Relax)
-9.44,-21.12,15.56,25.38,0.75,312.12,194.35,12.12,72.20,61.21,44.33,51.19,117.00,494.47,213.59,23.55,77.20,90.10,48.56,26.33,198.00,151.72,108.80,41.09,67.74,40.50,27.88,66.27,25.00,537.69,253.31,125.15,206.24,68.66,48.12,134.41,10.00,38.23,2.40,10.82,30.36,10.47,3.77,17.44,6.00,34.88,31.23,311.00,2.00,9.00,11.00,50.58,44.05,426.00,2.00,8.00,12.00,19.42,16.10,219.00,3.00,5.00,10.00,58.40,52.03,516.00,3.00,5.00,13.00,4.80,4.22,63.00,5.00,5.00,2.00,0,휴식 (Relax)
33.75,46.38,24.56,51.81,-2.38,290.54,159.51,79.68,73.78,134.50,84.01,72.42,40.00,443.24,179.56,116.21,110.45,192.93,103.66,129.07,94.00,162.98,85.68,71.17,79.08,67.67,23.16,34.49,57.00,519.01,198.08,206.24,235.93,156.12,59.32,42.09,95.00,36.73,4.35,10.76,31.02,9.70,5.75,15.53,8.00,34.56,32.44,345.00,3.00,9.00,11.00,50.27,45.78,500.00,3.00,8.00,13.00,20.38,17.92,230.00,3.00,5.00,11.00,58.70,53.59,549.00,3.00,5.00,14.00,4.72,4.08,66.00,6.00,6.00,2.00,0,휴식 (Relax)
37.31,39.88,16.94,45.25,-4.38,314.67,104.15,118.73,41.00,140.00,22.25,74.33,111.00,452.95,122.06,171.30,87.32,170.24,32.40,44.93,198.00,183.26,59.87,78.92,58.69,52.06,38.54,60.09,31.00,560.29,112.72,220.66,153.06,113.96,87.05,122.27,10.00,36.73,4.35,10.76,31.02,9.70,5.75,15.53,8.00,35.07,33.77,345.00,3.00,9.00,11.00,49.11,45.89,470.00,3.00,8.00,12.00,20.75,18.82,236.00,3.00,6.00,11.00,58.25,53.50,519.00,3.00,5.00,13.00,4.72,4.08,68.00,6.00,6.00,2.00,0,휴식 (Relax)
3.38,-5.06,0.31,9.62,2.19,338.53,73.30,112.98,12.73,109.06,32.73,53.07,80.00,471.19,96.50,163.81,59.17,141.15,19.34,55.32,167.00,192.99,52.20,72.76,52.01,46.07,28.72,51.68,41.00,593.38,70.89,192.82,124.62,77.23,46.42,95.30,32.00,37.10,7.62,7.19,29.27,8.94,9.59,9.80,15.00,34.45,32.50,314.00,2.00,9.00,11.00,48.33,44.20,439.00,3.00,8.00,12.00,20.62,18.31,214.00,2.00,6.00,11.00,57.79,52.08,455.00,2.00,5.00,13.00,4.61,3.86,65.00,6.00,7.00,1.00,0,휴식 (Relax)
-31.19,-31.44,-30.75,-45.06,2.38,270.76,136.35,181.47,80.50,99.90,80.35,41.43,9.00,408.73,170.30,236.35,115.83,103.36,66.07,102.02,93.00,131.28,82.95,134.97,38.83,19.14,53.32,56.55,104.00,480.84,178.03,307.50,74.73,65.38,106.24,139.77,149.00,35.65,7.65,4.88,26.31,11.93,10.46,9.12,18.00,34.18,31.96,345.00,3.00,8.00,12.00,48.02,42.92,470.00,3.00,8.00,13.00,20.85,18.22,249.00,3.00,6.00,12.00,56.54,51.31,495.00,3.00,4.00,13.00,4.46,3.72,65.00,6.00,7.00,1.00,0,휴식 (Relax)
-27.25,-26.81,-8.06,-45.75,-7.75,207.88,173.13,223.25,96.52,39.30,82.41,62.75,72.00,336.90,226.45,282.59,106.51,62.47,69.84,84.18,167.00,100.12,97.36,152.43,24.60,32.15,18.21,27.71,61.00,332.61,284.50,371.62,77.67,97.27,63.71,50.77,0.00,26.65,20.84,9.48,27.86,13.62,20.15,14.09,4.00,33.91,30.94,320.00,3.00,7.00,11.00,47.25,41.02,437.00,3.00,7.00,12.00,19.23,16.45,252.00,5.00,6.00,12.00,52.43,47.72,472.00,3.00,3.00,13.00,4.68,4.03,71.00,7.00,6.00,2.00,0,휴식 (Relax)
-7.69,-48.25,2.94,-47.88,-9.06,146.20,187.57,210.35,54.45,105.55,29.18,21.42,1.00,201.68,286.00,262.20,40.22,198.12,69.13,116.10,30.00,96.94,95.07,143.63,12.53,23.18,19.71,39.40,77.00,231.39,335.03,325.01,133.70,95.17,63.26,137.66,126.00,19.25,30.62,17.89,38.33,4.35,10.02,12.90,15.00,30.13,26.20,318.00,3.00,6.00,11.00,44.26,36.56,456.00,5.00,6.00,12.00,18.68,15.32,245.00,6.00,5.00,12.00,50.72,45.11,449.00,3.00,2.00,13.00,5.23,4.56,71.00,7.00,6.00,2.00,0,휴식 (Relax)
40.81,26.19,41.56,80.19,2.06,142.59,184.67,202.96,46.53,104.72,35.91,21.00,7.00,159.41,285.50,215.53,45.97,179.95,58.39,100.80,85.00,95.50,99.64,149.57,18.03,27.97,19.03,45.29,83.00,220.89,330.31,292.67,118.11,64.51,42.38,104.67,93.00,17.68,31.45,17.85,37.85,3.46,10.61,11.69,13.00,29.38,25.51,358.00,4.00,5.00,12.00,40.03,32.27,516.00,6.00,6.00,12.00,19.44,15.74,246.00,5.00,5.00,12.00,46.67,42.79,509.00,4.00,3.00,13.00,5.15,4.44,79.00,8.00,7.00,3.00,0,휴식 (Relax)
26.81,40.62,27.56,78.12,9.88,144.59,156.24,181.59,60.31,77.33,10.16,28.00,25.00,148.11,253.69,171.30,38.83,137.61,29.59,95.99,30.00,81.66,131.52,160.64,31.06,18.08,47.01,15.56,51.00,218.77,356.36,312.55,149.33,74.54,62.51,75.61,60.00,20.56,32.54,20.62,40.79,0.72,9.86,9.36,10.00,26.38,22.76,303.00,3.00,6.00,12.00,33.85,27.97,430.00,5.00,5.00,12.00,20.69,17.44,248.00,5.00,6.00,12.00,49.36,45.11,466.00,4.00,3.00,12.00,5.45,4.62,84.00,8.00,6.00,3.00,0,휴식 (Relax)
-5.62,8.00,-9.75,-7.25,-0.44,140.96,163.01,178.27,55.15,71.40,14.99,31.82,32.00,144.84,263.38,168.29,47.41,128.33,25.00,94.57,20.00,78.66,134.83,157.35,28.64,13.13,42.64,18.54,56.00,222.69,346.48,317.37,152.51,84.46,72.47,70.54,50.00,9.75,22.65,15.27,44.28,10.29,7.00,4.22,1.00,26.24,22.48,320.00,4.00,5.00,12.00,33.91,28.50,452.00,4.00,5.00,12.00,20.51,17.12,266.00,6.00,5.00,12.00,49.39,45.31,502.00,4.00,2.00,12.00,4.82,3.99,82.00,8.00,6.00,3.00,0,휴식 (Relax)
0.50,8.00,-30.00,-66.00,-2.44,118.56,180.11,148.40,79.26,71.94,15.40,37.24,2.00,144.84,263.38,168.29,47.41,128.33,25.00,94.57,20.00,75.30,134.69,153.55,25.06,14.56,43.80,17.54,52.00,237.66,335.13,337.23,171.40,81.39,61.57,74.81,70.00,9.75,22.65,15.27,44.28,10.29,7.00,4.22,1.00,25.25,21.38,313.00,5.00,5.00,11.00,33.91,28.50,422.00,3.00,5.00,11.00,20.12,16.88,267.00,3.00,5.00,12.00,50.80,46.25,542.00,4.00,2.00,12.00,4.82,3.99,77.00,7.00,5.00,3.00,0,휴식 (Relax)
-28.56,-40.75,-0.94,-7.25,-3.88,132.42,182.35,153.39,73.05,60.38,28.92,50.51,13.00,162.81,259.26,178.87,65.79,110.10,44.48,110.68,40.00,60.65,124.33,153.21,34.83,26.69,52.08,20.09,67.00,218.66,331.61,332.32,178.60,99.94,70.80,76.58,90.00,9.46,19.52,23.35,41.23,7.60,4.36,9.14,10.00,26.04,22.08,328.00,6.00,6.00,11.00,35.04,29.59,472.00,4.00,5.00,12.00,19.74,16.17,297.00,4.00,6.00,13.00,50.39,45.31,602.00,4.00,3.00,13.00,4.78,3.88,77.00,5.00,5.00,3.00,0,휴식 (Relax)
37.06,58.00,17.81,82.44,3.12,62.46,130.41,209.09,24.02,28.27,86.95,120.51,83.00,78.91,221.64,235.21,87.68,72.43,115.54,193.85,124.00,25.63,88.44,187.27,63.98,24.29,16.40,38.16,31.00,102.13,247.68,433.37,289.36,89.31,48.88,150.47,27.00,9.46,19.52,23.35,41.23,7.60,4.36,9.14,10.00,26.74,23.80,398.00,5.00,7.00,12.00,37.73,32.25,556.00,5.00,5.00,12.00,19.85,16.71,303.00,5.00,5.00,13.00,54.25,50.13,689.00,5.00,3.00,13.00,4.78,3.88,79.00,5.00,6.00,3.00,0,휴식 (Relax)
47.69,30.88,39.00,84.81,0.00,39.77,46.05,282.89,62.01,58.21,89.43,52.07,3.00,25.86,153.89,310.14,156.78,30.49,107.54,117.51,42.00,31.68,61.03,218.69,60.73,23.59,59.63,9.32,76.00,71.17,112.62,544.60,287.45,53.51,120.91,22.78,111.00,7.59,17.54,25.19,40.79,9.37,6.02,8.73,8.00,28.18,25.73,392.00,5.00,6.00,12.00,36.69,31.27,548.00,5.00,5.00,12.00,22.24,19.25,312.00,5.00,4.00,13.00,57.36,53.19,680.00,5.00,2.00,13.00,4.76,3.75,78.00,5.00,6.00,3.00,0,휴식 (Relax)
36.19,58.56,2.44,33.69,2.44,94.41,24.95,284.93,82.88,59.93,37.83,81.00,53.00,103.09,69.13,324.16,145.83,106.76,52.53,183.82,127.00,56.41,74.40,211.95,37.59,19.51,48.94,22.06,51.00,181.54,53.56,538.17,178.27,87.83,50.46,132.65,3.00,1.42,11.51,32.17,32.02,13.25,3.69,10.55,17.00,29.39,27.19,385.00,5.00,6.00,11.00,39.31,33.94,541.00,5.00,5.00,12.00,21.58,18.19,342.00,5.00,5.00,14.00,54.85,50.27,714.00,5.00,3.00,13.00,4.54,3.63,77.00,9.00,7.00,3.00,0,휴식 (Relax)
-20.75,-38.31,-17.56,-51.56,6.81,109.01,39.83,272.08,72.35,45.09,52.70,75.17,38.00,132.65,55.59,301.61,116.30,92.68,79.04,167.02,97.00,56.41,74.40,211.95,37.59,19.51,48.94,22.06,51.00,201.04,71.59,520.17,171.99,73.78,37.53,113.61,17.00,11.27,17.41,31.78,35.85,5.55,6.55,12.49,7.00,28.49,26.25,426.00,6.00,6.00,11.00,36.72,32.06,596.00,6.00,6.00,12.00,21.58,18.19,336.00,5.00,5.00,14.00,53.44,48.87,716.00,5.00,3.00,13.00,4.82,3.94,77.00,8.00,6.00,3.00,0,휴식 (Relax)
-41.38,-18.94,-30.00,-75.81,-1.00,91.84,26.73,290.23,90.21,45.60,68.60,80.07,16.00,141.31,61.39,292.53,114.74,85.58,69.92,168.60,107.00,35.42,51.03,236.57,19.70,39.73,12.65,22.50,92.00,135.93,38.38,592.46,86.61,142.54,56.75,76.00,109.00,8.67,14.43,34.43,33.29,7.92,9.15,15.12,4.00,29.95,27.62,400.00,5.00,6.00,11.00,36.32,31.44,542.00,5.00,7.00,12.00,22.83,19.38,340.00,4.00,4.00,14.00,56.85,53.31,713.00,5.00,3.00,13.00,4.81,3.88,82.00,8.00,7.00,3.00,0,휴식 (Relax)
-37.00,-43.06,-12.69,-49.25,-2.88,89.24,85.09,285.71,80.36,25.40,90.89,60.32,86.00,110.85,33.46,303.06,23.85,32.86,97.05,175.54,201.00,58.46,75.65,222.53,20.62,26.11,49.42,14.50,55.00,156.50,143.36,578.22,95.27,92.36,86.32,96.52,4.00,7.77,13.30,35.97,34.41,6.44,8.67,13.12,6.00,30.56,27.88,392.00,5.00,5.00,11.00,36.16,30.95,572.00,5.00,8.00,13.00,22.35,18.65,349.00,5.00,5.00,15.00,56.86,52.91,733.00,5.00,4.00,14.00,4.86,3.98,82.00,8.00,6.00,3.00,0,휴식 (Relax)
26.00,40.62,23.94,66.06,1.81,100.88,99.43,271.40,65.19,27.68,74.92,64.50,70.00,116.04,40.72,294.46,20.10,21.87,86.06,176.38,190.00,52.62,69.72,228.51,23.60,32.06,54.04,20.16,49.00,147.78,135.73,588.58,87.00,102.46,97.10,101.40,7.00,9.08,13.02,37.67,30.48,9.70,12.35,8.52,11.00,29.44,26.75,422.00,6.00,5.00,11.00,35.28,30.17,612.00,6.00,9.00,13.00,22.70,19.07,370.00,6.00,5.00,15.00,57.59,53.68,816.00,6.00,4.00,14.00,4.82,3.94,80.00,8.00,7.00,3.00,0,휴식 (Relax)
40.00,38.62,33.81,83.94,1.94,71.04,92.98,296.55,82.13,59.67,54.90,89.91,38.00,92.48,50.72,322.99,12.17,32.34,68.55,193.79,158.00,19.60,56.84,245.78,54.82,33.42,59.99,22.23,83.00,86.43,153.70,634.62,140.87,73.11,81.25,114.40,59.00,9.00,14.32,35.67,29.21,11.47,14.32,7.45,13.00,31.09,29.00,399.00,5.00,5.00,11.00,36.59,32.42,581.00,5.00,9.00,12.00,24.32,21.46,347.00,5.00,4.00,15.00,61.27,58.32,776.00,5.00,4.00,14.00,4.75,3.81,80.00,8.00,7.00,3.00,0,휴식 (Relax)
35.56,75.94,-7.06,34.69,3.94,3.64,150.59,288.06,55.90,74.37,74.82,22.09,109.00,47.72,157.36,334.68,105.68,79.82,102.69,115.17,265.00,21.36,78.92,230.59,55.36,6.84,32.88,9.49,53.00,9.47,235.34,609.45,193.61,38.47,52.22,72.43,25.00,9.00,14.32,35.67,29.21,11.47,14.32,7.45,13.00,31.42,29.56,399.00,5.00,5.00,11.00,41.03,36.06,625.00,5.00,9.00,13.00,22.63,19.82,366.00,6.00,5.00,15.00,60.86,58.06,810.00,5.00,5.00,14.00,4.75,3.81,71.00,7.00,7.00,2.00,0,휴식 (Relax)
-27.94,-49.81,-17.06,-31.19,3.25,7.47,158.21,280.69,48.05,66.86,75.13,29.94,101.00,49.12,143.20,350.66,109.77,92.34,106.95,99.71,285.00,21.36,78.92,230.59,55.36,6.84,32.88,9.49,53.00,25.88,260.74,579.82,175.57,61.63,69.92,89.81,5.00,7.27,9.90,28.79,24.04,22.14,19.44,11.13,2.00,30.91,29.06,447.00,6.00,5.00,11.00,42.25,37.31,722.00,6.00,9.00,13.00,22.63,19.82,366.00,6.00,5.00,15.00,59.45,56.19,864.00,6.00,4.00,14.00,4.47,3.53,69.00,7.00,6.00,2.00,0,휴식 (Relax)
-41.56,-41.06,-21.12,-80.56,-4.12,18.05,149.23,296.85,56.86,69.96,93.11,51.62,79.00,39.93,143.65,333.77,90.82,86.27,99.35,81.26,305.00,6.50,71.48,235.59,61.40,8.92,43.25,15.46,68.00,19.33,258.39,585.14,184.02,69.79,79.91,99.04,15.00,10.42,14.94,22.87,18.38,19.59,13.45,9.84,8.00,32.27,30.44,414.00,5.00,4.00,11.00,40.73,36.06,661.00,5.00,10.00,13.00,23.21,20.64,332.00,5.00,4.00,14.00,60.25,56.81,788.00,5.00,4.00,14.00,3.84,3.11,65.00,7.00,6.00,1.00,0,휴식 (Relax)
-23.12,-28.50,-13.06,-43.94,-3.81,73.02,179.32,283.94,32.98,16.04,41.88,27.77,134.00,72.65,172.76,328.56,85.48,46.70,65.97,40.36,346.00,43.97,99.73,203.02,31.26,44.07,61.62,34.19,19.00,105.09,327.79,531.62,157.32,137.06,77.39,7.18,91.00,9.49,10.34,24.43,17.12,23.64,10.34,12.89,13.00,31.99,29.89,413.00,5.00,5.00,11.00,41.31,37.06,660.00,5.00,9.00,13.00,21.86,18.83,325.00,5.00,5.00,13.00,59.61,55.68,818.00,5.00,5.00,15.00,3.96,3.31,57.00,7.00,5.00,1.00,0,휴식 (Relax)
8.38,13.19,3.31,31.12,1.69,80.42,187.30,276.20,25.30,22.52,44.32,22.92,126.00,83.63,183.71,318.16,74.55,54.82,76.97,50.99,335.00,65.29,121.71,181.77,9.85,37.52,39.62,18.25,41.00,137.54,360.74,498.67,124.40,112.66,44.51,25.93,58.00,14.89,11.09,19.77,9.22,17.73,11.09,6.07,5.00,31.80,29.33,412.00,5.00,4.00,11.00,41.00,36.29,669.00,5.00,9.00,13.00,20.98,17.11,303.00,5.00,5.00,13.00,57.98,53.36,805.00,5.00,5.00,15.00,3.20,2.81,51.00,7.00,5.00,0.00,0,휴식 (Relax)
29.38,32.50,34.25,58.75,-1.31,56.52,154.36,307.59,60.93,50.51,51.56,33.00,78.00,45.50,159.46,348.34,90.44,59.72,111.53,89.49,292.00,36.97,95.50,193.63,45.89,84.63,35.82,51.25,90.00,78.57,309.89,533.29,156.82,168.35,58.29,110.71,28.00,14.89,11.09,19.77,9.22,17.73,11.09,6.07,5.00,32.44,30.38,428.00,5.00,3.00,12.00,41.80,38.00,691.00,5.00,9.00,14.00,22.57,19.09,317.00,5.00,4.00,13.00,59.66,56.00,778.00,5.00,4.00,15.00,3.20,2.81,52.00,8.00,6.00,0.00,0,휴식 (Relax)
26.88,50.44,2.75,39.31,6.06,75.85,164.66,294.16,58.24,66.46,69.37,30.18,118.00,58.31,188.83,331.38,52.77,112.83,112.88,59.84,357.00,60.95,117.81,167.00,54.64,71.24,6.71,11.32,50.00,155.23,368.55,459.49,96.63,85.42,80.84,62.23,107.00,5.35,5.00,24.81,2.24,7.84,20.52,16.07,15.00,33.06,31.23,398.00,5.00,2.00,11.00,43.70,40.24,663.00,5.00,8.00,14.00,20.72,17.53,316.00,5.00,5.00,13.00,56.17,52.48,729.00,5.00,5.00,15.00,3.45,2.95,58.00,9.00,6.00,0.00,0,휴식 (Relax)
-36.56,-17.69,-30.69,-54.44,5.31,82.28,171.11,287.20,51.55,59.85,62.38,24.48,111.00,106.61,238.35,282.83,9.22,83.87,72.02,62.73,307.00,37.09,92.84,191.32,76.56,94.15,25.58,16.23,25.00,135.45,348.83,479.44,116.52,103.30,98.19,79.95,127.00,9.68,15.99,22.20,14.04,15.43,11.93,6.58,3.00,32.53,30.74,391.00,5.00,2.00,11.00,40.65,36.73,624.00,5.00,8.00,14.00,22.11,18.90,330.00,5.00,5.00,13.00,57.16,53.88,727.00,5.00,5.00,15.00,3.39,2.77,51.00,8.00,5.00,0.00,0,휴식 (Relax)
-32.62,-42.44,-23.12,-47.12,0.31,19.28,115.57,322.63,92.96,85.19,45.24,40.33,48.00,29.53,179.68,340.52,75.03,155.13,11.99,108.77,223.00,3.91,67.96,202.54,100.42,72.75,35.96,24.79,66.00,34.75,261.94,528.91,172.74,82.53,127.05,37.15,10.00,9.68,15.99,22.20,14.04,15.43,11.93,6.58,3.00,32.90,31.38,375.00,5.00,1.00,10.00,41.05,37.44,632.00,5.00,7.00,14.00,22.56,19.14,311.00,5.00,5.00,12.00,56.17,53.38,716.00,5.00,4.00,14.00,3.39,2.77,53.00,7.00,4.00,0.00,0,휴식 (Relax)
-20.19,-29.19,-9.69,-48.50,-4.56,53.88,124.51,295.39,82.01,34.00,34.34,43.19,119.00,49.57,195.24,327.54,90.14,123.99,44.79,92.04,275.00,58.64,101.25,167.43,73.55,47.71,19.78,33.12,11.00,140.77,306.58,460.18,129.88,57.48,12.10,105.86,148.00,7.82,15.68,23.71,16.03,17.37,10.21,6.25,5.00,31.08,29.46,375.00,5.00,1.00,10.00,41.42,37.84,609.00,5.00,7.00,14.00,19.95,16.52,286.00,5.00,5.00,12.00,53.62,50.81,682.00,5.00,4.00,14.00,3.52,2.92,55.00,7.00,4.00,0.00,0,휴식 (Relax)
-2.19,-14.50,10.31,5.19,-6.12,101.10,170.19,247.72,38.01,28.15,51.90,8.02,71.00,124.01,266.91,254.81,50.00,95.32,45.11,98.48,200.00,58.64,101.25,167.43,73.55,47.71,19.78,33.12,11.00,183.43,348.57,417.18,87.80,48.75,40.30,64.87,105.00,5.89,20.85,22.68,17.09,14.44,17.13,11.06,2.00,29.06,26.36,334.00,4.00,1.00,10.00,39.02,34.38,524.00,4.00,6.00,14.00,19.95,16.52,286.00,5.00,5.00,12.00,52.34,47.79,649.00,5.00,5.00,14.00,3.85,3.36,52.00,7.00,3.00,0.00,0,휴식 (Relax)
34.81,33.94,30.62,84.19,3.06,64.22,130.72,274.80,76.56,45.84,99.81,51.09,23.00,59.10,207.28,305.67,123.00,36.40,117.53,127.72,127.00,42.57,81.37,181.48,77.25,83.85,43.24,21.50,54.00,94.24,251.59,480.60,172.41,176.24,164.48,94.25,23.00,8.11,23.81,19.94,14.32,12.11,15.46,8.11,1.00,30.30,28.46,352.00,5.00,1.00,10.00,38.98,35.20,557.00,5.00,5.00,14.00,21.32,18.30,294.00,5.00,4.00,12.00,55.91,51.66,706.00,5.00,4.00,14.00,3.63,3.20,53.00,7.00,4.00,0.00,0,휴식 (Relax)
53.88,71.88,15.75,74.31,8.38,99.47,155.17,243.49,94.85,113.95,78.75,57.63,118.00,87.78,222.14,290.39,156.65,133.31,91.65,135.43,224.00,75.12,111.85,154.62,38.21,96.47,14.59,28.41,8.00,187.01,307.45,421.80,166.82,179.76,140.88,65.33,135.00,3.52,19.39,29.11,21.40,4.96,21.26,3.36,12.00,32.08,30.00,377.00,5.00,1.00,11.00,42.90,38.88,571.00,5.00,4.00,14.00,20.52,17.78,291.00,5.00,5.00,12.00,55.96,52.31,686.00,5.00,4.00,13.00,4.20,3.47,57.00,7.00,3.00,0.00,0,휴식 (Relax)
-20.50,-17.62,-19.94,-35.56,0.06,120.77,176.74,222.16,80.00,99.42,59.42,35.75,96.00,126.92,259.32,253.99,127.66,124.55,61.51,108.86,184.00,70.18,106.88,159.59,42.01,101.43,19.24,32.29,3.00,216.78,337.06,392.32,140.46,149.89,113.50,43.03,105.00,7.70,22.66,29.15,18.79,1.99,16.26,1.66,7.00,30.73,28.62,388.00,5.00,2.00,11.00,40.72,36.38,575.00,5.00,5.00,14.00,20.78,18.06,290.00,5.00,5.00,12.00,54.27,50.44,678.00,5.00,4.00,13.00,4.02,3.09,60.00,6.00,4.00,0.00,0,휴식 (Relax)
-24.56,-33.69,-17.31,-67.69,-8.38,74.80,140.49,253.46,120.93,129.89,16.50,15.46,49.00,66.87,203.98,304.24,180.25,183.17,7.94,66.04,121.00,31.05,87.07,175.95,36.67,98.72,26.18,37.40,45.00,101.55,246.85,473.84,232.38,166.15,39.35,123.30,21.00,6.31,13.66,37.35,27.20,7.46,11.89,10.47,2.00,30.97,28.76,379.00,5.00,2.00,10.00,41.12,36.65,595.00,5.00,5.00,15.00,20.48,17.60,278.00,5.00,4.00,11.00,55.51,51.02,696.00,5.00,3.00,13.00,4.57,3.78,69.00,7.00,4.00,0.00,0,휴식 (Relax)
-20.62,-57.88,0.12,-39.69,-2.19,45.99,154.26,237.55,112.01,78.60,64.44,48.14,112.00,68.08,205.10,300.92,160.31,142.45,97.28,148.56,214.00,33.17,111.09,154.95,17.09,61.61,19.26,16.65,6.00,113.87,294.81,444.13,199.16,42.79,91.31,7.49,107.00,8.94,11.80,39.49,26.48,7.36,10.53,7.92,1.00,29.82,26.91,379.00,5.00,2.00,10.00,43.09,37.34,581.00,5.00,4.00,15.00,18.16,14.88,254.00,6.00,4.00,11.00,52.50,47.15,672.00,5.00,4.00,13.00,4.60,3.91,73.00,7.00,5.00,0.00,0,휴식 (Relax)
-10.12,-2.44,0.12,-6.31,-5.62,87.28,207.61,184.07,57.01,75.04,60.50,25.42,56.00,151.91,283.13,229.06,73.68,83.44,65.21,62.37,127.00,33.17,111.09,154.95,17.09,61.61,19.26,16.65,6.00,163.90,347.99,392.81,145.22,63.75,72.50,47.47,53.00,17.94,16.26,37.31,17.72,2.45,19.07,14.70,8.00,27.86,23.80,323.00,4.00,2.00,9.00,37.95,30.85,504.00,4.00,4.00,15.00,18.16,14.88,244.00,5.00,4.00,10.00,51.26,44.14,638.00,4.00,4.00,13.00,4.77,4.12,77.00,7.00,6.00,0.00,0,휴식 (Relax)
41.94,25.06,41.69,84.94,1.50,25.27,156.15,231.13,95.44,49.03,121.23,84.78,7.00,82.96,218.65,294.82,109.79,11.50,131.57,40.97,55.00,22.17,83.35,179.98,63.06,65.31,46.20,64.31,61.00,56.79,267.98,471.73,185.69,105.93,166.60,151.92,55.00,19.81,18.26,35.38,18.38,3.64,17.39,13.51,6.00,29.56,26.58,364.00,5.00,1.00,9.00,36.90,31.17,526.00,5.00,4.00,15.00,20.95,17.48,284.00,5.00,3.00,11.00,55.60,49.95,686.00,5.00,3.00,13.00,4.70,4.00,77.00,7.00,7.00,0.00,0,휴식 (Relax)
37.06,41.81,15.44,64.75,5.88,52.80,170.13,225.79,81.32,123.09,71.70,18.59,71.00,64.38,213.48,308.66,82.73,87.90,71.40,57.05,139.00,56.27,106.06,163.58,64.20,92.10,20.65,29.34,25.00,105.61,315.52,454.13,116.02,198.47,74.86,78.91,92.00,14.11,13.21,42.33,9.90,13.32,18.48,15.21,4.00,29.64,27.55,349.00,5.00,1.00,8.00,37.25,32.46,538.00,5.00,4.00,15.00,20.80,17.51,303.00,5.00,4.00,12.00,54.90,51.16,667.00,5.00,4.00,13.00,4.86,4.11,82.00,7.00,7.00,0.00,0,휴식 (Relax)
-19.38,-3.12,-29.62,-52.25,2.44,59.40,176.67,219.66,74.63,119.34,68.82,19.01,64.00,89.33,238.88,285.53,52.17,85.15,67.66,43.14,108.00,44.62,91.07,178.58,78.59,104.90,30.83,21.02,10.00,105.61,315.52,454.13,116.02,198.47,74.86,78.91,92.00,16.10,17.94,40.67,15.65,13.33,12.33,10.63,3.00,29.31,27.17,374.00,5.00,1.00,8.00,36.32,30.77,540.00,5.00,5.00,15.00,21.79,18.38,334.00,5.00,4.00,12.00,54.90,51.16,711.00,5.00,4.00,13.00,4.78,3.92,80.00,6.00,7.00,0.00,0,휴식 (Relax)
-38.50,-22.19,-27.75,-57.06,0.44,38.92,136.15,257.39,99.01,151.30,32.19,47.13,18.00,58.73,208.69,314.15,66.07,115.13,53.87,58.58,77.00,43.08,74.16,192.44,90.97,112.41,4.91,35.23,40.00,49.28,249.18,518.17,143.81,232.37,8.37,46.39,9.00,16.10,17.94,40.67,15.65,13.33,12.33,10.63,3.00,30.93,28.75,372.00,5.00,1.00,8.00,36.72,31.36,539.00,5.00,5.00,15.00,22.94,19.97,300.00,5.00,3.00,11.00,56.59,52.45,688.00,5.00,3.00,13.00,4.78,3.92,79.00,5.00,6.00,0.00,0,휴식 (Relax)
-34.12,-56.38,-0.31,-49.81,-6.31,92.98,138.99,255.54,69.01,95.49,101.65,50.39,88.00,37.08,179.53,329.25,59.40,97.86,141.38,45.54,170.00,74.33,94.77,172.46,62.20,73.42,36.06,36.69,1.00,133.33,269.95,502.90,85.00,120.83,111.76,125.73,125.00,12.31,15.76,43.14,19.31,11.87,15.02,14.50,1.00,31.11,27.55,372.00,5.00,1.00,8.00,38.69,31.72,557.00,5.00,4.00,15.00,20.95,17.27,296.00,5.00,3.00,11.00,56.01,49.77,677.00,5.00,3.00,12.00,5.01,4.23,78.00,5.00,6.00,0.00,0,휴식 (Relax)
-23.19,-39.81,-9.06,-33.88,-1.81,155.98,196.85,202.64,6.08,88.49,68.10,23.12,25.00,141.98,260.18,257.73,75.72,13.76,78.45,85.77,65.00,94.29,114.76,152.49,47.63,83.34,28.15,22.67,21.00,228.32,359.68,415.93,10.00,154.00,74.69,30.77,30.00,4.31,19.74,40.12,23.43,7.04,16.63,6.77,7.00,30.30,25.03,316.00,4.00,1.00,7.00,37.06,28.56,502.00,5.00,5.00,15.00,20.93,17.19,271.00,6.00,3.00,11.00,54.86,46.58,592.00,4.00,3.00,12.00,4.81,4.09,82.00,5.00,7.00,0.00,0,휴식 (Relax)
43.38,50.81,24.69,55.19,-3.19,94.40,136.33,266.48,70.26,52.54,122.48,81.81,46.00,95.09,208.00,310.69,114.83,47.93,118.12,139.74,11.00,48.41,84.54,176.57,33.54,71.50,73.21,37.23,73.00,145.84,279.89,491.36,95.52,135.91,161.31,68.68,65.00,6.42,29.72,30.19,17.00,17.00,7.93,15.58,3.00,31.74,28.23,387.00,5.00,1.00,8.00,39.32,32.73,566.00,5.00,4.00,15.00,20.98,17.89,303.00,5.00,4.00,12.00,56.01,49.77,687.00,5.00,3.00,13.00,4.61,3.94,79.00,5.00,7.00,0.00,0,휴식 (Relax)
38.94,14.62,38.62,90.50,9.31,87.24,146.58,275.93,95.52,121.26,58.65,50.67,25.00,81.99,189.26,325.35,149.04,64.58,69.09,93.87,62.00,60.71,125.04,152.30,38.08,132.09,34.08,46.80,8.00,143.61,296.55,483.40,176.71,264.97,78.32,72.85,74.00,1.72,24.37,34.87,24.35,21.73,0.12,22.30,11.00,32.52,30.33,379.00,5.00,1.00,8.00,38.56,32.17,589.00,5.00,5.00,15.00,22.50,19.67,311.00,5.00,4.00,12.00,59.81,55.50,721.00,5.00,2.00,13.00,5.18,4.44,87.00,5.00,8.00,1.00,0,휴식 (Relax)
20.00,63.62,-7.00,39.94,2.88,122.89,190.83,240.37,68.95,104.32,79.21,49.08,22.00,149.83,251.90,264.21,114.00,41.91,139.20,168.75,34.00,70.05,134.98,142.51,35.36,126.21,27.87,37.07,18.00,234.27,394.53,393.20,149.34,217.12,76.39,36.96,31.00,8.72,26.47,32.40,23.02,25.22,6.88,18.51,4.00,32.34,30.62,380.00,5.00,1.00,8.00,41.35,35.05,634.00,5.00,6.00,15.00,22.17,19.12,336.00,5.00,5.00,12.00,58.78,55.57,714.00,5.00,3.00,13.00,5.15,4.36,91.00,5.00,8.00,1.00,0,휴식 (Relax)
-4.50,-13.00,-15.75,-24.38,5.12,130.76,197.94,233.03,61.47,97.62,79.94,49.19,14.00,159.75,261.87,254.35,104.00,34.23,136.44,162.43,24.00,50.08,123.37,154.82,55.23,138.20,9.81,17.45,38.00,223.27,384.75,402.47,160.31,225.91,76.60,47.96,42.00,20.31,37.96,20.56,11.05,13.94,8.66,22.33,16.00,32.21,30.19,364.00,5.00,1.00,8.00,41.09,34.50,657.00,5.00,7.00,15.00,22.53,19.69,323.00,5.00,4.00,12.00,59.01,56.17,692.00,5.00,3.00,13.00,5.07,4.16,85.00,4.00,9.00,1.00,0,휴식 (Relax)
-31.56,0.00,-31.81,-46.38,0.25,70.69,188.01,239.91,69.63,56.46,135.70,96.41,49.00,129.21,242.30,263.24,108.81,55.05,155.35,157.01,8.00,28.99,150.80,138.63,79.93,80.50,72.81,77.37,25.00,115.01,367.38,401.39,211.29,134.37,186.55,85.09,86.00,18.65,36.26,21.75,11.05,14.24,10.63,22.81,18.00,32.46,29.70,370.00,5.00,0.00,8.00,40.35,32.25,624.00,4.00,7.00,15.00,22.92,18.74,331.00,5.00,4.00,12.00,57.13,52.97,722.00,5.00,3.00,14.00,5.04,4.06,84.00,4.00,9.00,1.00,0,휴식 (Relax)
-18.56,-24.31,-14.56,-47.75,-5.81,60.16,251.27,181.74,46.14,53.61,70.88,17.67,31.00,86.95,281.70,197.19,32.14,67.33,49.12,159.56,99.00,63.02,186.53,105.50,61.03,82.89,53.81,49.89,11.00,144.69,477.70,292.19,139.74,118.05,88.38,56.65,52.00,16.60,36.18,19.61,4.12,2.63,12.21,28.59,3.00,29.40,26.33,305.00,4.00,1.00,7.00,35.81,28.60,568.00,6.00,8.00,15.00,22.70,17.69,310.00,6.00,5.00,12.00,54.51,48.16,624.00,4.00,3.00,14.00,4.81,4.09,83.00,5.00,9.00,1.00,0,휴식 (Relax)
-25.62,-51.19,-0.50,-27.12,-3.50,72.83,265.89,167.38,33.97,60.90,70.66,32.67,16.00,119.83,330.64,147.37,18.25,44.63,95.11,168.42,49.00,48.31,175.08,117.25,75.43,71.83,62.35,48.15,26.00,153.78,487.43,282.96,129.88,124.74,84.48,46.72,42.00,20.20,40.45,15.83,5.66,7.12,7.21,24.39,8.00,29.98,27.03,306.00,4.00,2.00,7.00,38.15,31.34,578.00,6.00,8.00,15.00,22.38,17.00,325.00,4.00,5.00,13.00,54.77,48.55,604.00,4.00,3.00,14.00,4.89,4.25,76.00,4.00,9.00,1.00,0,휴식 (Relax)
41.44,37.88,35.12,71.31,-3.75,12.53,238.07,183.93,89.56,123.11,57.14,94.14,47.00,62.12,280.70,176.28,68.41,105.52,137.06,215.23,14.00,31.56,180.30,117.00,80.96,123.76,9.47,55.34,28.00,17.12,431.05,313.46,172.07,257.27,70.34,99.39,95.00,16.40,36.61,19.62,8.94,10.07,5.27,20.52,12.00,31.51,29.26,377.00,5.00,3.00,8.00,39.01,32.62,641.00,7.00,8.00,15.00,23.82,19.70,349.00,5.00,5.00,13.00,55.87,52.11,691.00,5.00,3.00,14.00,4.59,4.00,70.00,4.00,8.00,1.00,0,휴식 (Relax)
45.00,32.06,27.06,64.00,5.75,59.31,276.09,145.65,97.53,123.86,109.42,48.06,24.00,34.11,289.99,151.72,129.14,96.83,155.20,126.70,79.00,60.68,209.32,92.18,53.15,122.16,42.23,56.48,5.00,100.21,498.03,250.70,115.52,258.78,120.66,24.23,22.00,8.41,33.63,21.91,14.42,14.07,6.70,28.48,4.00,33.12,31.38,378.00,5.00,3.00,8.00,37.25,30.82,591.00,7.00,8.00,14.00,24.80,21.80,355.00,5.00,6.00,13.00,57.05,54.62,661.00,5.00,3.00,13.00,4.80,4.22,76.00,5.00,7.00,2.00,0,휴식 (Relax)
11.00,39.69,-10.62,-3.31,2.19,89.10,307.93,113.66,70.94,92.04,79.42,53.06,8.00,82.38,337.83,104.56,111.65,42.83,104.40,180.70,25.00,55.69,204.59,96.90,56.57,126.93,45.72,59.92,10.00,120.08,518.97,229.70,94.64,238.04,100.09,7.29,1.00,4.11,38.84,17.47,12.04,6.77,10.83,20.88,13.00,32.87,31.00,354.00,4.00,4.00,8.00,38.53,32.81,570.00,4.00,8.00,14.00,24.90,22.03,348.00,5.00,5.00,13.00,56.75,53.48,629.00,5.00,2.00,13.00,4.56,3.86,72.00,4.00,8.00,2.00,0,휴식 (Relax)
-38.12,-49.81,-21.56,-55.69,4.88,57.80,252.65,161.74,135.25,86.49,89.27,97.55,86.00,52.22,271.07,170.03,183.39,68.23,44.89,248.98,47.00,28.41,185.83,120.02,47.17,99.34,78.51,24.74,55.00,89.21,424.25,311.34,158.00,202.37,119.80,133.41,137.00,8.39,43.83,12.50,7.07,5.93,5.89,23.71,8.00,33.11,30.89,408.00,5.00,4.00,9.00,40.36,34.84,642.00,7.00,8.00,14.00,23.41,19.65,339.00,5.00,5.00,13.00,55.36,51.40,679.00,5.00,2.00,13.00,4.73,4.12,70.00,3.00,8.00,2.00,0,휴식 (Relax)
-26.69,-6.44,-23.69,-66.50,-4.50,112.83,269.26,155.85,125.16,15.49,23.99,81.73,15.00,92.50,257.35,181.59,187.76,36.43,63.89,209.20,7.00,70.98,217.00,103.94,25.71,64.74,33.97,52.11,9.00,224.90,468.16,295.00,137.62,79.58,27.20,61.87,10.00,1.64,36.94,19.49,13.04,6.31,8.47,28.31,2.00,32.21,29.77,359.00,4.00,5.00,8.00,38.75,32.69,639.00,7.00,9.00,14.00,23.67,19.15,298.00,6.00,5.00,12.00,54.96,49.38,582.00,4.00,2.00,13.00,4.70,4.19,77.00,5.00,9.00,3.00,0,휴식 (Relax)
-32.31,-62.00,-4.94,-36.50,0.62,134.80,289.50,137.40,103.41,31.70,45.99,71.98,37.00,163.25,304.57,138.80,119.62,42.70,94.49,242.99,64.00,51.31,197.01,123.47,45.40,45.62,32.05,72.04,11.00,224.90,468.16,295.00,137.62,79.58,27.20,61.87,10.00,3.61,37.23,19.20,12.08,6.98,6.50,27.89,0.00,33.14,30.98,344.00,4.00,6.00,7.00,41.91,36.00,678.00,6.00,10.00,14.00,22.90,18.05,318.00,6.00,6.00,13.00,54.96,49.38,602.00,4.00,3.00,13.00,4.66,4.08,80.00,6.00,10.00,3.00,0,휴식 (Relax)
-32.31,-21.38,-10.88,-27.75,-4.06,134.80,289.50,137.40,103.41,31.70,45.99,71.98,37.00,172.74,314.57,128.82,116.48,44.12,84.50,240.84,54.00,39.94,187.21,132.42,49.66,48.54,21.05,57.98,4.00,208.06,450.31,311.16,146.49,85.75,33.77,43.65,10.00,8.36,41.41,14.49,7.81,2.06,10.14,27.27,5.00,33.14,30.98,344.00,4.00,6.00,7.00,42.16,36.55,678.00,6.00,10.00,14.00,22.15,17.56,298.00,4.00,6.00,12.00,54.11,48.44,612.00,4.00,3.00,14.00,4.78,4.31,78.00,6.00,10.00,3.00,0,휴식 (Relax)
40.81,56.44,30.06,81.62,2.38,93.25,269.85,146.29,29.41,108.52,90.07,146.05,41.00,112.98,250.36,198.20,32.14,158.82,85.44,286.38,61.00,42.09,193.42,120.38,24.19,76.18,53.84,84.48,29.00,175.34,429.08,311.85,73.82,206.29,104.74,181.42,128.00,5.16,32.75,21.82,7.21,9.08,14.96,24.95,14.00,33.76,31.81,415.00,5.00,6.00,8.00,42.59,37.31,753.00,7.00,10.00,14.00,23.47,20.29,331.00,5.00,6.00,12.00,56.75,52.17,720.00,5.00,3.00,14.00,4.55,4.05,81.00,7.00,11.00,3.00,0,휴식 (Relax)
36.38,39.56,16.12,63.31,7.69,125.74,318.77,108.00,59.09,98.10,27.57,77.08,30.00,163.50,297.82,195.33,62.07,146.94,9.15,213.86,33.00,68.70,220.97,89.81,15.62,57.03,36.60,69.69,2.00,255.11,518.68,227.14,45.35,158.43,90.50,83.29,11.00,15.16,29.35,23.51,6.40,9.34,18.01,31.60,3.00,34.16,32.38,344.00,4.00,6.00,7.00,41.96,36.81,670.00,4.00,10.00,14.00,23.60,21.09,306.00,4.00,7.00,12.00,57.83,54.02,636.00,4.00,4.00,14.00,4.92,4.31,85.00,5.00,10.00,3.00,0,휴식 (Relax)
6.38,60.19,-21.94,10.38,6.88,97.56,286.83,139.92,54.59,129.69,45.32,57.17,62.00,184.37,319.69,177.66,64.85,125.47,19.89,234.06,11.00,21.72,177.41,122.26,36.40,94.67,72.48,87.21,49.00,223.22,486.15,259.22,62.23,188.13,122.78,80.36,22.00,28.07,38.60,16.99,10.30,4.68,5.80,20.13,16.00,32.88,30.38,376.00,4.00,6.00,8.00,43.57,38.19,659.00,4.00,10.00,14.00,23.59,20.16,329.00,5.00,6.00,12.00,56.90,51.70,647.00,4.00,3.00,14.00,5.05,4.36,72.00,4.00,9.00,2.00,0,휴식 (Relax)
-28.19,-23.88,-22.56,-61.69,-7.19,30.21,245.88,182.65,125.26,111.93,26.89,94.41,9.00,153.52,296.22,205.36,94.92,110.06,50.13,265.06,20.00,50.08,166.64,123.91,87.32,61.34,23.63,44.30,21.00,67.71,415.77,326.44,207.71,132.66,90.93,138.97,137.00,16.27,23.82,31.87,21.93,19.00,9.31,6.52,31.00,32.19,29.81,399.00,5.00,6.00,8.00,43.98,39.23,690.00,5.00,10.00,14.00,21.61,17.58,289.00,5.00,6.00,11.00,54.61,49.40,685.00,5.00,3.00,14.00,5.08,4.44,81.00,5.00,8.00,3.00,0,휴식 (Relax)
-17.25,-65.38,2.44,-45.12,-4.75,18.36,262.97,171.54,130.94,69.56,27.81,81.48,38.00,73.81,320.99,241.96,180.76,98.16,113.12,149.20,116.00,50.08,166.64,123.91,87.32,61.34,23.63,44.30,21.00,73.94,474.52,290.48,211.97,37.44,16.71,112.75,32.00,15.95,20.90,35.68,25.61,18.56,5.93,13.26,24.00,31.75,29.03,383.00,5.00,7.00,7.00,44.29,38.55,664.00,6.00,9.00,14.00,21.61,17.58,304.00,5.00,7.00,11.00,54.12,47.66,630.00,4.00,4.00,14.00,5.20,4.66,80.00,7.00,8.00,3.00,0,휴식 (Relax)
-23.31,-52.25,-7.56,-52.00,-4.12,46.40,292.48,142.06,101.77,96.72,8.21,75.54,7.00,104.40,367.75,216.77,160.85,130.91,70.61,175.67,66.00,50.08,166.64,123.91,87.32,61.34,23.63,44.30,21.00,122.57,524.30,241.78,164.71,86.32,48.47,95.01,82.00,22.92,27.17,31.94,18.87,9.30,7.33,3.99,34.00,32.28,29.77,360.00,4.00,7.00,6.00,46.28,41.28,663.00,5.00,9.00,14.00,21.61,17.58,294.00,6.00,7.00,11.00,55.74,50.00,610.00,4.00,5.00,14.00,5.13,4.62,75.00,7.00,8.00,3.00,0,휴식 (Relax)
-29.88,-29.69,-4.12,-3.88,0.88,52.11,298.67,137.44,99.30,97.16,2.32,78.45,14.00,143.97,405.08,175.81,121.84,96.34,83.95,168.54,107.00,42.98,151.03,124.39,80.62,57.56,44.33,21.32,46.00,93.44,501.69,260.91,178.02,98.24,76.64,84.29,112.00,22.92,27.17,31.94,18.87,9.30,7.33,3.99,34.00,32.64,30.09,359.00,4.00,6.00,6.00,46.86,42.15,652.00,6.00,9.00,14.00,20.43,16.41,284.00,6.00,8.00,10.00,55.13,48.59,650.00,4.00,5.00,14.00,5.13,4.62,73.00,7.00,7.00,3.00,0,휴식 (Relax)
44.19,70.31,-0.06,33.94,2.31,54.42,286.10,122.16,44.55,158.51,60.85,132.76,77.00,51.87,380.03,227.07,125.72,153.70,113.57,219.80,203.00,50.46,154.34,111.56,65.76,71.35,41.28,36.14,31.00,58.93,504.47,237.58,114.81,161.47,81.00,147.82,29.00,14.10,22.13,37.40,16.03,11.35,14.57,10.07,25.00,34.36,32.66,429.00,5.00,6.00,7.00,49.99,46.40,728.00,5.00,8.00,14.00,20.10,15.72,274.00,4.00,8.00,9.00,54.66,48.95,673.00,5.00,5.00,14.00,4.92,4.35,73.00,7.00,7.00,3.00,0,휴식 (Relax)
24.75,21.19,42.12,91.88,1.88,105.80,323.95,74.39,38.60,136.82,45.39,77.76,22.00,62.96,434.10,207.34,61.91,92.85,141.58,148.56,121.00,92.24,194.77,78.62,85.15,52.14,34.36,14.15,76.00,167.90,610.89,118.51,79.65,99.24,51.65,23.23,158.00,9.53,25.40,35.09,9.06,16.07,8.42,7.22,32.00,34.26,32.75,374.00,4.00,7.00,7.00,48.19,44.56,679.00,4.00,9.00,14.00,22.86,19.58,280.00,4.00,7.00,9.00,59.12,53.38,632.00,4.00,5.00,14.00,4.79,4.12,73.00,4.00,7.00,3.00,0,휴식 (Relax)
40.75,63.12,8.94,69.88,1.44,105.80,323.95,74.39,38.60,136.82,45.39,77.76,22.00,95.04,467.10,176.55,37.74,78.95,109.03,180.73,154.00,63.52,168.24,68.52,65.73,79.12,38.39,42.50,105.00,167.90,610.89,118.51,79.65,99.24,51.65,23.23,158.00,11.44,32.32,28.18,12.04,10.59,11.56,7.92,25.00,34.26,32.75,382.00,4.00,7.00,8.00,50.19,46.62,723.00,4.00,10.00,15.00,20.99,17.09,309.00,4.00,8.00,10.00,59.12,53.38,654.00,4.00,6.00,15.00,4.62,3.87,63.00,3.00,6.00,2.00,0,휴식 (Relax)
-11.25,0.12,-17.75,-11.69,4.44,59.97,284.31,92.88,92.36,89.27,23.95,131.18,86.00,64.00,445.23,200.61,20.00,47.48,84.49,212.24,186.00,33.87,158.83,20.76,113.84,60.88,72.75,16.59,52.00,99.47,571.22,131.11,143.27,73.54,113.38,110.13,71.00,11.44,32.32,28.18,12.04,10.59,11.56,7.92,25.00,32.00,30.16,406.00,5.00,8.00,8.00,49.58,44.62,777.00,4.00,10.00,15.00,19.84,15.31,301.00,6.00,8.00,10.00,56.38,49.40,675.00,5.00,6.00,15.00,4.62,3.87,63.00,3.00,5.00,2.00,0,휴식 (Relax)
-23.31,2.81,-29.94,-57.25,-3.25,73.14,297.37,80.19,116.85,75.81,24.33,105.05,39.00,41.37,449.80,193.50,23.00,80.64,93.82,177.10,143.00,51.96,180.22,11.52,126.05,35.13,45.21,14.74,81.00,105.30,601.09,101.94,188.43,10.82,51.85,53.48,142.00,6.61,32.03,25.69,15.81,5.62,15.56,10.24,30.00,32.11,29.77,367.00,4.00,7.00,8.00,48.32,41.94,683.00,3.00,9.00,14.00,21.28,16.67,300.00,6.00,8.00,10.00,58.23,51.56,664.00,4.00,6.00,15.00,4.68,4.00,68.00,4.00,5.00,2.00,0,휴식 (Relax)
-23.75,-66.94,2.81,-37.88,-4.62,67.33,291.01,86.70,122.15,69.39,30.50,105.15,32.00,50.08,466.10,174.74,30.48,85.07,102.16,187.46,163.00,33.04,160.33,11.89,143.56,20.63,42.15,32.02,101.00,98.20,591.53,111.60,195.21,2.51,52.96,52.45,152.00,3.42,39.84,15.71,23.02,12.65,6.36,4.65,20.00,31.74,29.44,360.00,4.00,6.00,8.00,49.79,43.19,714.00,4.00,8.00,14.00,20.89,16.09,329.00,7.00,8.00,11.00,57.77,51.09,664.00,4.00,6.00,15.00,4.68,4.05,60.00,6.00,4.00,1.00,0,휴식 (Relax)
-9.69,-44.44,-3.44,-39.75,-6.50,52.82,276.96,97.60,132.23,81.02,29.00,99.70,47.00,86.87,505.51,149.81,26.25,45.17,64.40,183.82,123.00,13.05,148.69,30.37,153.65,17.88,29.91,21.72,81.00,71.93,565.15,131.73,217.87,32.48,32.36,49.74,122.00,5.36,41.81,15.20,21.95,12.91,6.93,5.44,22.00,31.24,28.73,368.00,4.00,6.00,9.00,51.06,45.69,674.00,4.00,8.00,14.00,20.11,14.99,314.00,8.00,8.00,10.00,56.00,49.69,634.00,4.00,6.00,14.00,4.82,4.19,57.00,5.00,3.00,1.00,0,휴식 (Relax)
-11.06,-36.31,5.94,-30.38,-7.94,31.02,268.77,93.27,117.61,88.66,17.12,115.04,25.00,57.07,488.69,135.00,52.81,40.74,37.79,197.68,93.00,4.85,151.16,33.42,145.43,25.78,39.40,21.89,91.00,62.18,562.49,128.60,211.82,29.97,41.95,52.48,132.00,13.80,47.47,23.25,14.87,4.39,13.12,5.45,13.00,30.29,27.70,368.00,4.00,6.00,9.00,49.18,43.81,644.00,4.00,8.00,14.00,20.15,15.19,319.00,9.00,8.00,11.00,55.61,49.22,634.00,4.00,6.00,14.00,5.24,4.69,54.00,4.00,2.00,1.00,0,휴식 (Relax)
40.06,12.12,42.50,69.94,-2.06,54.45,310.24,30.40,73.55,12.61,91.75,48.71,103.00,30.17,499.07,94.02,76.58,7.30,59.67,166.29,134.00,54.68,201.11,41.39,121.75,37.81,28.08,62.06,36.00,46.58,623.07,25.22,140.43,81.74,74.05,80.23,25.00,12.21,47.57,21.92,13.45,2.97,15.06,6.76,11.00,30.85,29.05,346.00,4.00,6.00,9.00,48.81,42.77,610.00,4.00,7.00,14.00,22.83,18.00,316.00,4.00,7.00,11.00,57.94,52.95,623.00,4.00,5.00,14.00,5.17,4.56,53.00,3.00,3.00,1.00,0,휴식 (Relax)
32.56,25.19,47.38,91.25,-5.50,46.48,302.29,38.39,65.73,16.30,98.17,41.85,111.00,41.96,470.20,109.81,101.26,26.90,71.24,136.22,167.00,72.05,217.70,40.70,139.27,27.58,10.12,44.08,54.00,57.43,634.00,17.09,150.31,80.06,64.57,73.76,36.00,18.20,41.20,19.45,21.02,10.96,21.22,13.36,2.00,30.25,28.49,354.00,4.00,7.00,9.00,47.06,40.96,610.00,4.00,6.00,14.00,24.67,19.41,310.00,4.00,7.00,10.00,58.95,53.72,634.00,4.00,5.00,14.00,5.30,4.69,51.00,3.00,4.00,1.00,0,휴식 (Relax)
48.06,47.19,2.38,48.62,6.69,53.68,308.61,35.92,68.01,24.03,99.85,34.04,119.00,41.96,470.20,109.81,101.26,26.90,71.24,136.22,167.00,59.78,211.92,54.81,136.72,40.80,12.39,30.42,70.00,40.22,617.00,19.67,142.34,100.10,63.68,73.15,58.00,19.91,38.21,16.64,19.92,9.54,21.02,11.65,5.00,30.98,29.05,338.00,4.00,8.00,9.00,47.06,40.96,610.00,4.00,5.00,14.00,24.27,18.16,315.00,3.00,8.00,10.00,57.56,52.17,623.00,4.00,6.00,14.00,5.01,4.48,63.00,4.00,5.00,2.00,0,휴식 (Relax)
-6.94,-2.06,-17.94,-23.75,6.88,44.21,306.89,24.48,83.24,31.12,92.71,18.38,135.00,86.46,437.25,36.44,58.42,56.98,42.83,68.07,243.00,61.90,209.79,51.31,131.75,44.74,17.37,28.33,75.00,47.15,614.79,37.93,182.89,77.03,39.62,63.91,16.00,20.93,35.98,14.68,17.09,7.63,19.01,12.35,2.00,30.96,28.80,355.00,4.00,8.00,9.00,43.54,37.06,578.00,4.00,6.00,14.00,24.00,17.92,330.00,4.00,7.00,11.00,57.74,52.19,616.00,4.00,5.00,14.00,4.69,4.27,48.00,3.00,4.00,1.00,0,휴식 (Relax)
-29.94,17.00,-41.06,-63.75,1.44,44.21,306.89,24.48,83.24,31.12,92.71,18.38,135.00,71.43,425.73,46.14,89.27,67.60,42.39,59.33,274.00,62.35,222.97,47.13,133.96,43.64,28.57,32.11,89.00,47.15,614.79,37.93,182.89,77.03,39.62,63.91,16.00,21.92,36.83,12.61,16.03,1.30,12.07,13.96,5.00,30.96,28.80,370.00,4.00,7.00,10.00,43.65,37.25,549.00,5.00,6.00,14.00,25.23,18.58,329.00,4.00,6.00,11.00,57.74,52.19,646.00,4.00,4.00,14.00,4.51,4.06,51.00,3.00,4.00,1.00,0,휴식 (Relax)
14.62,32.56,28.88,55.00,-1.69,49.85,268.04,49.92,121.20,70.07,129.67,50.52,96.00,129.27,335.32,89.78,130.91,151.86,126.56,99.62,171.00,53.57,193.80,79.62,166.37,20.75,49.76,61.31,122.00,69.67,498.81,152.66,296.98,55.30,154.92,164.34,132.00,23.25,35.79,10.75,14.04,1.46,13.75,13.92,3.00,30.67,28.80,409.00,5.00,8.00,11.00,41.27,34.08,561.00,5.00,6.00,14.00,26.30,20.64,391.00,5.00,6.00,11.00,57.82,53.62,762.00,5.00,4.00,14.00,4.44,3.94,54.00,4.00,4.00,1.00,0,휴식 (Relax)
19.19,6.12,31.81,36.81,-1.81,80.00,228.40,70.14,142.28,72.34,113.33,37.24,151.00,199.43,266.41,110.43,97.67,114.52,71.27,84.60,242.00,57.98,187.30,112.56,181.18,69.67,62.27,12.67,73.00,179.49,423.18,228.69,333.29,74.99,116.04,50.82,17.00,25.09,33.86,9.41,14.04,2.82,13.39,13.19,5.00,29.92,28.19,410.00,5.00,7.00,11.00,38.23,30.27,563.00,5.00,7.00,14.00,27.31,22.48,392.00,5.00,6.00,11.00,55.66,51.94,723.00,5.00,5.00,14.00,4.36,3.81,49.00,3.00,4.00,1.00,0,휴식 (Relax)
-14.69,-35.50,-21.56,-37.56,3.06,98.33,232.15,64.86,118.34,42.38,96.51,24.25,121.00,209.09,261.66,105.52,87.86,107.06,70.34,79.54,232.00,57.43,180.40,115.58,190.28,74.35,72.21,7.76,63.00,171.19,421.64,231.34,342.15,82.50,123.95,43.53,7.00,27.09,32.13,10.54,16.03,1.74,12.24,14.55,3.00,28.06,26.31,364.00,5.00,7.00,11.00,37.57,29.56,498.00,5.00,6.00,14.00,27.70,22.95,441.00,6.00,7.00,12.00,56.02,52.56,755.00,5.00,5.00,14.00,4.42,3.94,52.00,4.00,4.00,1.00,0,휴식 (Relax)
-33.25,-10.75,-30.00,-62.38,1.19,96.84,177.89,132.58,173.56,70.24,36.33,67.34,50.00,155.49,249.43,181.38,103.73,48.70,54.71,53.45,156.00,71.45,155.42,140.56,201.69,91.35,55.24,23.18,88.00,144.44,358.68,314.00,387.32,132.58,43.75,106.10,90.00,25.26,32.68,8.65,16.28,3.62,10.30,16.43,1.00,28.06,26.03,371.00,5.00,6.00,11.00,34.28,26.81,474.00,5.00,6.00,14.00,28.71,24.12,406.00,3.00,6.00,12.00,58.16,55.17,719.00,5.00,4.00,14.00,4.36,3.81,54.00,4.00,5.00,1.00,0,휴식 (Relax)
-36.38,-27.50,-20.94,-71.81,-3.38,146.17,115.95,175.34,151.43,37.93,97.98,47.11,112.00,152.35,215.28,204.96,67.23,41.95,86.15,78.37,208.00,133.33,115.71,177.71,149.28,43.96,76.74,49.71,23.00,255.23,189.68,418.55,275.36,87.59,188.24,120.57,79.00,21.14,30.11,10.94,23.19,5.66,16.78,9.45,8.00,29.05,26.22,362.00,5.00,5.00,10.00,34.58,27.81,450.00,5.00,6.00,14.00,27.33,22.68,376.00,5.00,7.00,11.00,56.80,52.27,717.00,5.00,4.00,14.00,4.37,3.80,59.00,5.00,5.00,1.00,0,휴식 (Relax)
-31.50,-30.88,-0.31,-15.75,-6.69,223.83,77.81,171.11,75.96,43.63,64.78,61.75,34.00,223.62,111.82,170.42,58.82,136.28,23.69,42.26,102.00,143.20,119.38,173.97,142.64,37.56,77.37,39.76,33.00,351.19,139.77,396.87,196.66,28.17,159.06,38.41,18.00,22.75,21.24,21.74,24.35,7.28,15.19,19.82,3.00,28.19,24.06,306.00,4.00,5.00,9.00,30.76,25.88,395.00,5.00,6.00,14.00,27.23,22.02,366.00,4.00,7.00,11.00,53.53,46.66,680.00,4.00,5.00,14.00,4.61,3.86,60.00,5.00,4.00,1.00,0,휴식 (Relax)
43.00,40.12,35.00,75.81,2.62,171.51,61.05,220.42,76.69,74.90,113.13,102.19,22.00,192.75,140.98,200.83,48.04,157.38,55.19,63.76,70.00,97.84,67.84,232.94,104.71,23.47,129.22,30.69,92.00,268.27,122.30,480.98,150.84,115.08,227.98,61.55,105.00,26.52,16.24,23.53,19.70,4.71,11.32,16.03,2.00,30.20,27.25,369.00,5.00,5.00,9.00,32.36,27.88,468.00,6.00,7.00,15.00,28.20,23.62,391.00,5.00,6.00,11.00,56.98,52.73,727.00,5.00,4.00,14.00,4.26,3.47,61.00,5.00,5.00,1.00,0,휴식 (Relax)
38.56,69.06,3.25,87.88,15.56,133.04,58.35,276.70,29.00,114.08,55.11,83.31,49.00,128.29,177.24,247.08,113.02,191.21,53.08,62.87,135.00,94.28,24.39,254.05,69.31,33.50,90.60,16.71,48.00,186.00,129.92,588.51,50.60,158.92,84.41,123.57,54.00,10.99,30.62,36.94,30.81,21.22,5.70,18.66,19.00,30.96,28.74,369.00,5.00,5.00,9.00,36.88,31.94,430.00,5.00,6.00,15.00,26.46,22.06,386.00,5.00,6.00,11.00,59.26,56.27,729.00,5.00,4.00,14.00,5.85,4.62,73.00,5.00,5.00,2.00,0,휴식 (Relax)
-24.94,-10.69,-30.19,-51.12,3.12,133.53,57.46,275.38,21.00,107.06,54.59,79.61,41.00,83.31,185.29,237.06,128.89,135.25,11.71,39.38,75.00,84.10,42.74,268.96,54.12,55.74,89.59,37.58,23.00,186.00,129.92,588.51,50.60,158.92,84.41,123.57,54.00,4.65,33.93,42.64,27.31,18.87,5.34,13.13,12.00,30.49,28.30,417.00,6.00,5.00,9.00,32.70,28.19,486.00,6.00,7.00,15.00,27.53,23.23,416.00,6.00,5.00,12.00,59.26,56.27,868.00,6.00,5.00,15.00,5.84,4.62,83.00,5.00,6.00,3.00,0,휴식 (Relax)
-32.00,-22.56,-33.62,-51.12,2.56,127.24,69.26,289.97,25.81,109.95,45.34,69.30,26.00,81.53,173.27,209.11,103.60,137.08,32.98,52.65,105.00,71.10,54.93,293.04,33.97,60.31,72.02,25.82,48.00,186.00,129.92,588.51,50.60,158.92,84.41,123.57,54.00,4.76,33.34,41.97,19.42,12.25,3.78,21.67,21.00,31.25,29.12,425.00,6.00,5.00,9.00,30.53,26.31,486.00,6.00,7.00,15.00,28.74,24.75,411.00,5.00,5.00,11.00,59.26,56.27,858.00,6.00,5.00,14.00,5.68,4.38,81.00,5.00,5.00,3.00,0,휴식 (Relax)
-37.62,-51.94,-22.06,-78.62,-6.56,113.00,90.96,303.31,15.03,88.19,66.89,89.27,48.00,77.08,182.32,216.34,109.88,128.74,42.30,61.84,115.00,56.04,58.89,297.38,55.04,35.31,96.88,30.19,23.00,154.60,169.85,607.14,89.44,122.09,124.40,153.74,94.00,6.43,32.06,40.16,20.62,14.21,3.14,19.69,19.00,32.43,30.33,376.00,5.00,4.00,8.00,31.48,26.94,465.00,5.00,7.00,15.00,29.30,25.95,381.00,5.00,6.00,11.00,61.73,58.45,781.00,5.00,5.00,14.00,5.51,4.24,84.00,6.00,4.00,3.00,0,휴식 (Relax)
-26.19,-57.50,-3.94,-50.69,-4.44,63.99,145.07,276.55,56.01,139.41,42.24,18.30,23.00,56.16,250.06,202.88,72.99,192.29,64.55,9.26,44.00,36.80,60.12,257.94,88.48,71.38,66.63,52.43,73.00,56.32,271.82,538.23,141.65,233.21,93.75,138.89,33.00,5.38,34.05,41.67,19.10,14.76,4.74,18.02,17.00,31.45,28.61,375.00,5.00,4.00,8.00,34.73,29.69,464.00,5.00,7.00,15.00,27.14,23.05,390.00,5.00,5.00,12.00,60.59,55.86,779.00,5.00,5.00,14.00,5.59,4.38,82.00,6.00,4.00,3.00,0,휴식 (Relax)
-14.75,-61.75,8.94,-22.62,-4.56,45.29,167.81,222.07,77.79,158.49,22.34,71.85,32.00,102.58,306.81,121.84,23.32,211.40,30.01,83.08,136.00,52.97,62.76,217.65,73.11,88.04,64.15,11.88,27.00,101.14,333.86,409.84,118.33,261.84,54.29,109.30,96.00,5.76,32.52,42.32,17.80,13.35,6.69,17.02,15.00,30.22,26.22,367.00,5.00,3.00,7.00,37.69,30.94,452.00,5.00,6.00,15.00,23.69,19.82,354.00,6.00,5.00,12.00,55.32,48.61,755.00,5.00,5.00,14.00,5.47,4.24,70.00,5.00,4.00,2.00,0,휴식 (Relax)
48.75,52.25,35.19,83.00,-2.06,44.44,166.38,218.02,72.25,150.56,23.72,64.97,24.00,102.58,306.81,121.84,23.32,211.40,30.01,83.08,136.00,48.55,76.97,214.99,101.08,115.44,57.00,20.53,1.00,87.71,336.87,416.49,139.18,283.77,60.48,110.27,118.00,10.00,34.03,34.33,24.60,6.39,12.96,18.25,7.00,29.34,25.66,374.00,6.00,3.00,7.00,37.69,30.94,512.00,5.00,6.00,15.00,25.27,21.79,362.00,5.00,5.00,12.00,57.10,50.50,787.00,5.00,5.00,14.00,5.31,4.06,72.00,5.00,4.00,2.00,0,휴식 (Relax)
61.69,48.88,32.19,66.62,1.25,92.20,222.26,185.20,128.32,148.15,87.03,59.94,41.00,105.51,346.97,126.43,74.97,199.09,52.17,57.41,82.00,83.44,124.86,170.95,110.17,115.30,97.57,36.40,47.00,112.08,410.09,356.71,183.90,269.55,119.68,155.65,32.00,14.91,32.04,32.50,22.80,6.50,12.23,15.20,12.00,33.38,30.64,368.00,5.00,2.00,7.00,39.74,34.52,491.00,4.00,6.00,14.00,26.39,23.29,338.00,5.00,4.00,11.00,59.52,55.47,758.00,5.00,5.00,14.00,5.09,3.75,70.00,6.00,4.00,2.00,0,휴식 (Relax)
32.75,67.44,1.44,48.44,11.56,155.12,282.61,122.20,119.94,87.52,54.19,42.16,22.00,147.30,401.70,91.21,99.82,152.84,11.75,67.60,137.00,127.17,160.32,140.76,72.01,72.51,58.78,7.62,3.00,220.34,521.30,248.81,128.27,169.85,33.66,63.24,147.00,5.02,42.23,25.07,33.54,8.05,21.70,9.25,23.00,33.76,31.78,346.00,4.00,3.00,7.00,43.19,38.38,491.00,4.00,5.00,14.00,24.31,21.06,294.00,4.00,4.00,11.00,58.86,56.13,643.00,4.00,4.00,14.00,5.89,4.44,78.00,5.00,4.00,3.00,0,휴식 (Relax)
-33.88,-5.88,-15.56,-30.56,2.25,106.13,259.63,151.88,173.65,64.13,97.81,69.32,76.00,105.31,375.69,134.10,134.83,117.35,53.87,87.80,180.00,82.59,156.12,123.62,108.23,55.90,70.54,54.92,45.00,126.28,477.49,263.68,223.73,97.72,122.23,61.17,243.00,5.66,46.78,20.19,33.02,10.41,17.20,12.49,18.00,34.60,32.22,408.00,5.00,2.00,8.00,42.29,36.09,545.00,5.00,6.00,14.00,23.44,20.01,308.00,5.00,3.00,12.00,57.37,53.20,717.00,5.00,4.00,14.00,5.89,4.41,87.00,5.00,5.00,3.00,0,휴식 (Relax)
-15.94,-4.56,-21.56,-25.25,1.94,86.37,282.78,138.59,183.77,31.39,55.83,61.24,29.00,84.55,380.02,142.35,146.40,112.86,40.03,83.42,159.00,63.97,208.54,62.31,92.27,22.95,14.04,28.25,19.00,78.78,516.49,208.32,232.85,85.14,70.01,78.82,158.00,10.21,48.85,20.07,28.02,5.90,19.16,7.87,23.00,34.08,30.54,391.00,4.00,3.00,8.00,42.13,35.02,504.00,4.00,5.00,13.00,21.95,18.63,264.00,4.00,3.00,12.00,56.00,49.72,642.00,4.00,4.00,13.00,5.87,4.32,82.00,3.00,4.00,3.00,0,휴식 (Relax)
-29.06,-15.19,-16.25,-43.38,-2.75,96.77,312.26,109.93,155.86,61.35,67.35,50.92,59.00,93.17,371.53,149.03,154.51,103.25,43.59,86.94,149.00,66.76,213.36,58.81,87.28,26.25,18.75,24.39,14.00,89.79,545.72,178.83,204.30,109.19,60.14,51.98,188.00,5.25,50.60,15.35,28.28,8.49,18.53,2.95,28.00,34.90,31.71,383.00,4.00,4.00,8.00,41.83,34.63,494.00,4.00,4.00,13.00,22.15,18.91,259.00,4.00,3.00,11.00,56.97,50.89,632.00,4.00,4.00,13.00,5.89,4.41,85.00,5.00,4.00,3.00,0,휴식 (Relax)
-28.62,-14.56,-21.25,-43.38,-2.56,102.33,318.03,105.39,153.21,58.76,68.91,54.49,52.00,87.28,381.30,139.73,149.04,97.23,53.20,94.41,139.00,66.76,213.36,58.81,87.28,26.25,18.75,24.39,14.00,89.79,545.72,178.83,204.30,109.19,60.14,51.98,188.00,3.13,53.40,13.42,25.32,5.90,20.75,5.95,25.00,35.21,31.98,376.00,4.00,4.00,8.00,41.98,35.02,474.00,4.00,4.00,12.00,22.15,18.91,259.00,4.00,4.00,11.00,56.97,50.89,612.00,4.00,3.00,12.00,5.93,4.56,80.00,4.00,4.00,3.00,0,휴식 (Relax)
-22.06,-62.06,7.19,-25.88,-2.69,95.54,316.78,102.23,146.70,64.21,75.09,60.44,45.00,88.82,404.30,145.20,184.32,82.71,27.58,57.39,179.00,42.28,221.18,33.84,62.39,36.44,26.58,49.39,39.00,51.95,538.36,147.19,167.03,124.61,100.01,91.49,148.00,3.86,51.58,12.47,25.71,6.68,22.74,7.80,23.00,34.90,31.71,383.00,4.00,4.00,8.00,44.49,36.59,514.00,4.00,3.00,12.00,21.83,18.44,269.00,4.00,5.00,11.00,54.98,49.33,582.00,4.00,3.00,12.00,5.85,4.44,76.00,4.00,3.00,3.00,0,휴식 (Relax)
21.56,26.06,17.19,23.50,-4.94,42.68,350.80,48.35,136.00,32.69,29.27,9.81,99.00,70.62,416.99,83.94,167.76,26.86,80.33,8.07,241.00,26.52,235.92,32.46,62.65,22.33,10.61,35.28,23.00,10.18,564.33,110.66,155.03,83.39,78.86,58.53,190.00,6.18,50.38,8.47,21.84,2.80,20.40,5.49,27.00,34.53,32.30,352.00,4.00,4.00,8.00,44.22,37.42,533.00,4.00,4.00,12.00,22.27,19.44,241.00,4.00,4.00,11.00,55.16,50.62,537.00,4.00,3.00,12.00,5.55,4.19,69.00,3.00,3.00,3.00,0,휴식 (Relax)
38.06,26.75,34.56,78.50,1.94,49.06,342.81,51.27,128.00,40.09,31.50,4.96,107.00,74.46,407.41,90.58,156.82,17.01,90.18,15.28,252.00,31.62,230.40,26.66,56.72,24.49,8.31,32.34,17.00,10.18,564.33,110.66,155.03,83.39,78.86,58.53,190.00,7.39,51.39,8.02,21.38,3.47,20.02,5.74,25.00,33.92,31.67,368.00,4.00,4.00,9.00,43.73,36.56,500.00,4.00,3.00,11.00,21.63,19.06,229.00,4.00,4.00,11.00,55.16,50.62,570.00,4.00,2.00,12.00,5.57,4.32,62.00,4.00,3.00,2.00,0,휴식 (Relax)
38.56,50.12,11.56,48.94,-2.00,53.87,336.95,46.32,128.19,35.19,24.24,11.22,99.00,91.78,386.23,82.73,156.12,25.04,85.16,17.71,230.00,31.62,230.40,26.66,56.72,24.49,8.31,32.34,17.00,63.91,523.34,57.44,155.91,46.45,31.34,76.98,135.00,15.90,35.09,10.69,5.66,15.49,12.04,17.46,8.00,33.29,31.05,305.00,3.00,4.00,8.00,41.78,34.84,446.00,3.00,3.00,11.00,21.63,19.06,217.00,3.00,5.00,11.00,50.29,46.33,464.00,3.00,3.00,12.00,4.29,3.50,55.00,5.00,4.00,1.00,0,휴식 (Relax)
35.12,57.06,4.69,74.62,17.06,64.06,342.90,100.78,73.33,80.42,32.46,66.22,44.00,30.68,421.47,147.32,91.20,61.46,135.78,81.77,165.00,37.00,220.19,29.06,27.51,32.65,21.73,35.73,47.00,66.93,538.70,161.70,46.86,70.61,85.83,158.91,18.00,1.25,49.09,18.22,19.42,23.60,11.66,30.35,7.00,34.24,32.86,297.00,3.00,4.00,8.00,44.29,38.93,447.00,3.00,3.00,11.00,20.80,17.77,217.00,3.00,4.00,11.00,53.09,50.17,497.00,3.00,4.00,13.00,6.10,4.55,75.00,6.00,5.00,2.00,0,휴식 (Relax)
-27.88,-8.56,-11.56,5.44,2.06,64.06,342.90,100.78,73.33,80.42,32.46,66.22,44.00,21.04,420.13,152.17,92.40,62.29,126.19,72.33,175.00,54.91,202.87,25.36,38.95,15.90,16.61,38.01,27.00,117.88,514.11,175.73,88.64,70.72,63.10,131.95,69.00,1.25,49.09,18.22,19.42,23.60,11.66,30.35,7.00,34.24,32.86,353.00,4.00,3.00,9.00,44.10,38.38,482.00,4.00,4.00,11.00,19.50,16.37,222.00,4.00,4.00,11.00,51.97,48.06,533.00,3.00,4.00,13.00,6.10,4.55,81.00,5.00,5.00,3.00,0,휴식 (Relax)
0.75,18.94,-39.38,-56.81,-3.19,101.82,305.66,75.46,111.22,73.71,54.92,96.92,6.00,51.03,366.07,123.27,163.78,18.15,172.12,134.30,103.00,35.92,221.39,42.49,29.83,29.80,34.62,53.08,8.00,136.79,495.20,162.65,98.47,50.72,53.18,133.60,49.00,2.75,48.04,18.03,15.52,19.62,8.87,32.10,11.00,33.04,30.88,377.00,5.00,4.00,10.00,42.57,36.81,504.00,5.00,5.00,11.00,21.27,17.70,236.00,4.00,4.00,11.00,50.35,46.81,574.00,4.00,4.00,13.00,5.89,4.36,84.00,6.00,5.00,3.00,0,휴식 (Relax)
28.81,44.75,19.00,51.94,4.19,163.03,255.04,16.70,124.33,133.04,76.28,75.72,69.00,163.67,251.07,29.20,190.71,124.77,199.12,95.16,218.00,60.56,208.54,31.71,7.62,52.59,58.27,78.90,18.00,237.57,393.81,59.89,66.04,144.42,165.93,196.29,165.00,12.59,39.91,10.06,20.52,25.93,18.80,32.50,1.00,32.95,30.94,401.00,5.00,4.00,11.00,40.99,35.22,527.00,5.00,4.00,11.00,21.79,18.25,286.00,4.00,5.00,11.00,50.00,46.44,670.00,5.00,5.00,13.00,5.83,4.41,92.00,7.00,6.00,3.00,0,휴식 (Relax)
10.38,16.31,23.62,56.25,0.75,196.81,255.01,48.29,91.21,113.96,37.29,69.42,30.00,258.68,192.71,74.83,115.76,115.73,102.69,93.77,115.00,79.31,216.51,52.30,15.30,56.45,52.32,58.21,4.00,322.94,385.92,142.91,61.85,173.92,103.86,101.23,58.00,19.08,32.94,3.80,26.08,28.99,14.24,29.21,8.00,32.36,29.80,354.00,4.00,5.00,11.00,35.62,30.02,435.00,4.00,5.00,11.00,22.61,19.28,264.00,4.00,5.00,10.00,50.81,46.78,574.00,4.00,4.00,13.00,5.64,4.12,93.00,7.00,7.00,3.00,0,휴식 (Relax)
19.38,17.00,13.69,35.62,0.44,186.82,243.10,39.70,101.82,126.05,28.22,66.78,14.00,250.39,188.80,72.28,125.30,126.72,92.16,96.27,104.00,69.51,200.73,43.82,20.52,73.45,64.69,47.93,21.00,310.32,369.69,128.35,76.49,195.52,116.79,80.38,36.00,23.13,30.09,7.35,23.77,24.08,13.88,32.91,3.00,31.52,28.92,345.00,4.00,5.00,10.00,35.19,29.50,435.00,4.00,5.00,11.00,21.57,18.48,275.00,4.00,6.00,11.00,49.55,45.58,585.00,4.00,5.00,13.00,5.53,3.87,90.00,7.00,7.00,3.00,0,휴식 (Relax)
-22.62,-50.75,-19.00,-71.50,-4.38,184.24,163.16,111.42,72.44,68.15,73.69,124.18,94.00,227.15,118.88,150.39,112.59,120.06,150.39,134.38,188.00,81.99,152.99,90.10,69.43,71.52,13.79,75.66,32.00,312.21,243.75,219.86,185.95,208.95,13.27,206.36,162.00,21.53,29.51,5.35,26.57,23.71,12.22,35.80,0.00,29.07,27.42,367.00,5.00,6.00,10.00,36.85,31.91,486.00,5.00,4.00,11.00,20.65,18.38,283.00,5.00,6.00,11.00,51.49,47.62,689.00,5.00,5.00,13.00,5.63,4.08,84.00,7.00,6.00,2.00,0,휴식 (Relax)
-12.62,-16.00,-26.81,-26.81,6.81,214.29,135.66,145.58,25.30,51.43,69.40,76.69,46.00,259.10,42.94,205.39,41.62,45.55,153.81,70.85,112.00,112.53,147.70,116.44,71.17,36.61,39.62,66.47,3.00,360.51,200.44,283.37,177.91,133.98,75.90,140.49,87.00,21.40,27.16,7.55,25.71,21.06,15.11,32.82,3.00,28.03,26.38,304.00,4.00,6.00,9.00,34.22,29.75,440.00,4.00,5.00,11.00,21.73,19.81,273.00,4.00,6.00,11.00,50.72,46.81,644.00,4.00,6.00,13.00,5.35,3.91,86.00,8.00,7.00,3.00,0,휴식 (Relax)
-34.62,-34.75,-16.50,-74.31,-5.75,214.29,135.66,145.58,25.30,51.43,69.40,76.69,46.00,275.77,33.36,201.76,34.23,60.60,136.48,89.37,132.00,117.53,151.16,115.45,66.41,39.24,37.79,64.81,2.00,397.72,216.23,282.47,138.18,152.58,48.81,165.37,127.00,25.09,20.19,13.95,18.97,26.92,9.82,39.02,4.00,28.03,26.38,311.00,4.00,6.00,9.00,35.14,31.00,460.00,4.00,6.00,12.00,21.93,20.12,273.00,4.00,6.00,11.00,53.39,49.31,694.00,4.00,7.00,14.00,5.55,4.25,99.00,9.00,8.00,4.00,0,휴식 (Relax)
-27.12,-42.88,-7.44,-53.06,-7.19,222.29,142.83,137.65,32.98,45.74,77.16,70.23,38.00,305.37,55.08,172.92,64.12,73.00,165.85,59.42,102.00,103.61,136.16,130.14,72.56,33.60,46.56,56.37,17.00,417.71,235.45,264.52,137.01,164.31,46.71,159.09,107.00,33.28,16.15,17.29,23.43,29.30,12.38,33.63,5.00,28.44,26.88,303.00,4.00,7.00,8.00,36.64,32.88,460.00,4.00,6.00,12.00,21.30,19.19,278.00,4.00,5.00,12.00,54.41,50.56,694.00,4.00,8.00,14.00,5.84,4.59,96.00,8.00,8.00,4.00,0,휴식 (Relax)
-34.12,-88.50,1.31,-53.06,-6.94,222.29,142.83,137.65,32.98,45.74,77.16,70.23,38.00,373.77,124.22,138.89,97.84,16.73,138.96,125.93,172.00,90.85,122.64,142.13,56.08,53.33,26.57,72.94,3.00,417.71,235.45,264.52,137.01,164.31,46.71,159.09,107.00,37.28,18.57,15.62,26.63,25.31,13.45,34.44,1.00,28.44,26.88,310.00,4.00,8.00,8.00,42.78,37.25,510.00,4.00,6.00,13.00,20.83,18.10,283.00,5.00,4.00,13.00,54.41,50.56,694.00,4.00,8.00,14.00,6.06,4.80,96.00,8.00,8.00,4.00,0,휴식 (Relax)
31.50,51.81,14.75,45.38,-2.94,178.67,129.14,110.58,102.31,24.45,115.40,105.06,108.00,314.04,96.57,94.12,157.47,90.32,192.26,192.36,247.00,91.27,133.20,128.54,43.29,48.39,63.16,32.61,38.00,354.43,230.97,252.86,173.83,185.14,151.53,139.93,212.00,37.28,18.57,15.62,26.63,25.31,13.45,34.44,1.00,28.24,26.50,373.00,5.00,9.00,9.00,44.57,39.04,605.00,5.00,6.00,13.00,20.27,17.22,269.00,4.00,4.00,13.00,53.94,49.67,779.00,5.00,8.00,14.00,6.06,4.80,100.00,8.00,8.00,4.00,0,휴식 (Relax)
27.56,13.06,30.00,60.69,4.56,181.29,181.32,52.78,124.28,55.71,52.81,96.00,45.00,285.39,173.01,4.73,216.51,95.02,102.33,142.08,155.00,110.11,159.61,101.26,71.18,20.66,55.57,60.50,10.00,355.60,324.94,166.01,266.43,79.34,103.63,193.17,105.00,32.26,13.77,20.50,33.54,20.23,6.95,39.06,9.00,27.96,26.01,326.00,4.00,9.00,8.00,40.50,34.20,546.00,4.00,7.00,13.00,21.68,18.75,275.00,4.00,4.00,13.00,55.23,50.40,749.00,4.00,8.00,14.00,6.12,4.94,106.00,9.00,7.00,4.00,0,휴식 (Relax)
26.56,33.69,17.69,36.62,1.12,190.90,196.68,40.29,111.52,45.76,63.43,88.38,61.00,291.11,193.71,17.28,203.09,73.44,114.39,142.30,177.00,114.83,164.07,98.32,71.00,23.87,52.30,56.06,15.00,374.03,355.88,135.99,254.97,90.75,84.64,163.20,138.00,31.68,17.50,19.22,31.05,27.17,9.26,33.00,2.00,28.64,26.88,310.00,4.00,9.00,7.00,41.29,35.23,568.00,4.00,8.00,14.00,21.90,19.02,270.00,4.00,4.00,13.00,56.01,52.20,716.00,4.00,8.00,14.00,5.97,4.64,102.00,8.00,7.00,4.00,0,휴식 (Relax)
4.06,11.69,-5.94,7.06,9.56,170.23,186.08,38.07,128.14,63.07,68.70,72.88,85.00,291.11,193.71,17.28,203.09,73.44,114.39,142.30,177.00,76.95,156.24,84.19,109.00,36.22,15.08,43.66,53.00,328.35,335.80,142.38,308.02,72.37,36.92,108.46,193.00,36.28,26.50,11.40,22.47,26.14,13.26,41.88,11.00,27.82,25.57,334.00,4.00,9.00,8.00,41.29,35.23,568.00,4.00,9.00,14.00,20.57,17.69,273.00,5.00,4.00,13.00,53.96,49.20,716.00,4.00,7.00,14.00,6.45,5.13,106.00,7.00,7.00,4.00,0,휴식 (Relax)
-31.00,2.75,-28.44,-30.94,5.88,108.74,217.73,38.72,97.74,34.58,109.43,129.93,22.00,262.38,206.63,46.72,186.04,48.85,141.86,165.45,144.00,45.75,184.45,45.90,116.11,60.48,54.19,44.38,13.00,266.67,370.09,102.36,299.17,133.72,100.90,170.96,129.00,46.11,35.31,5.45,28.32,16.18,2.27,31.34,0.00,28.03,26.00,373.00,4.00,9.00,9.00,40.37,33.69,568.00,4.00,8.00,14.00,21.71,18.94,293.00,5.00,4.00,14.00,54.03,49.57,725.00,5.00,6.00,14.00,6.53,5.16,89.00,8.00,7.00,3.00,0,휴식 (Relax)
-27.06,5.50,-30.00,-43.62,-1.06,46.75,280.32,66.71,39.41,28.94,48.42,67.25,85.00,218.98,248.91,81.50,148.12,92.15,100.08,124.58,188.00,51.86,223.35,32.79,80.62,34.42,42.59,56.24,52.00,150.55,486.16,15.91,182.27,117.57,83.52,95.51,246.00,29.11,35.29,11.73,19.42,10.06,15.63,21.85,17.00,27.68,25.94,310.00,4.00,8.00,8.00,38.55,31.62,503.00,3.00,7.00,13.00,22.99,20.25,282.00,4.00,4.00,13.00,52.49,48.62,679.00,5.00,6.00,14.00,5.29,4.43,82.00,7.00,7.00,2.00,0,휴식 (Relax)
-27.06,-34.25,-10.69,-59.19,-5.62,46.75,280.32,66.71,39.41,28.94,48.42,67.25,85.00,199.47,266.35,82.42,160.31,89.05,109.49,144.56,168.00,55.98,226.68,37.70,78.26,30.97,38.78,51.94,47.00,97.72,543.40,82.85,199.21,46.68,20.99,113.08,175.00,22.72,41.44,15.30,26.31,3.06,11.06,22.28,10.00,27.68,25.94,279.00,3.00,8.00,7.00,39.35,33.19,512.00,3.00,7.00,13.00,23.10,20.52,272.00,4.00,4.00,13.00,54.64,51.59,638.00,4.00,5.00,14.00,5.48,4.75,82.00,6.00,6.00,2.00,0,휴식 (Relax)
-25.12,-59.12,6.56,-30.44,-7.38,41.61,285.09,36.65,67.07,19.12,66.52,54.55,116.00,141.32,300.46,45.46,228.98,37.80,150.02,73.26,250.00,15.00,232.95,39.70,43.60,17.36,5.48,11.20,3.00,104.09,539.94,80.19,181.12,41.42,5.41,118.32,155.00,20.37,45.25,14.09,27.20,5.94,10.61,23.31,14.00,28.41,27.14,247.00,3.00,7.00,6.00,41.95,36.73,509.00,3.00,6.00,13.00,21.37,18.94,232.00,4.00,4.00,13.00,53.72,50.49,552.00,3.00,6.00,14.00,5.72,5.00,76.00,5.00,5.00,2.00,0,휴식 (Relax)
-7.12,-33.19,7.56,-24.44,-6.62,79.11,262.01,36.14,67.78,62.64,18.68,64.37,68.00,153.16,293.91,65.49,204.20,130.33,55.03,142.11,155.00,30.53,219.46,24.52,57.25,31.88,20.99,7.93,13.00,139.89,489.59,38.52,162.69,134.74,92.05,148.96,59.00,21.96,51.93,3.55,16.12,13.90,20.57,17.66,2.00,26.74,24.66,246.00,3.00,6.00,6.00,40.32,35.69,507.00,3.00,7.00,13.00,20.65,17.94,226.00,4.00,3.00,13.00,51.37,46.80,541.00,3.00,5.00,13.00,5.85,5.12,73.00,5.00,5.00,2.00,0,휴식 (Relax)
47.38,50.12,13.62,51.62,2.38,55.17,284.57,15.34,90.52,79.00,19.94,73.11,44.00,145.18,301.06,66.94,215.19,136.08,47.67,149.36,144.00,47.25,202.82,30.08,51.79,34.89,17.07,15.12,4.00,170.26,458.32,34.88,129.87,121.71,73.75,144.00,92.00,21.96,51.93,3.55,16.12,13.90,20.57,17.66,2.00,28.70,26.53,294.00,4.00,5.00,7.00,41.08,36.38,591.00,4.00,7.00,14.00,19.51,16.88,220.00,4.00,3.00,12.00,48.60,44.22,593.00,4.00,5.00,13.00,5.85,5.12,82.00,6.00,5.00,2.00,0,휴식 (Relax)
23.88,18.50,46.81,83.25,2.38,62.84,277.40,13.95,88.65,76.93,27.93,74.63,36.00,165.73,279.11,45.46,217.22,125.10,55.14,158.35,122.00,26.80,219.82,6.73,80.50,63.88,44.50,44.08,33.00,148.27,478.25,53.06,134.20,139.54,84.31,153.03,114.00,21.96,51.93,3.55,16.12,13.90,20.57,17.66,2.00,28.21,25.91,271.00,3.00,5.00,7.00,40.10,35.00,551.00,3.00,7.00,14.00,22.38,18.69,219.00,3.00,3.00,12.00,50.62,45.94,511.00,3.00,4.00,13.00,5.85,5.12,77.00,5.00,4.00,2.00,0,휴식 (Relax)
28.94,56.56,15.56,54.06,4.88,38.69,295.57,59.63,43.46,31.85,70.29,82.13,11.00,71.03,356.26,127.94,123.94,30.69,149.10,192.04,27.00,43.67,219.01,42.19,84.43,60.79,24.65,16.42,3.00,64.62,529.52,159.06,39.56,78.80,34.75,97.28,1.00,13.96,59.90,5.64,14.00,5.92,19.07,9.91,6.00,28.92,27.32,272.00,3.00,5.00,7.00,41.84,36.13,565.00,3.00,7.00,14.00,22.25,18.44,238.00,3.00,3.00,12.00,50.65,47.30,493.00,3.00,4.00,13.00,5.95,5.25,69.00,4.00,3.00,1.00,0,휴식 (Relax)
-3.56,1.88,-16.38,-1.25,0.38,41.94,293.20,63.88,41.00,38.20,66.70,82.03,3.00,61.68,359.08,129.59,127.14,34.27,140.84,190.00,38.00,58.28,209.36,50.67,70.38,46.12,18.24,21.48,12.00,69.51,525.27,164.00,21.26,59.96,33.41,107.66,20.00,21.51,55.07,9.81,6.00,7.31,14.68,1.98,14.00,28.79,26.88,282.00,4.00,5.00,7.00,41.79,35.59,599.00,3.00,8.00,14.00,21.24,17.50,259.00,4.00,3.00,12.00,50.36,46.16,497.00,4.00,3.00,13.00,5.59,4.80,61.00,3.00,4.00,0.00,0,휴식 (Relax)
-5.44,-0.06,-26.06,-44.12,0.06,68.05,267.22,54.16,70.58,52.95,62.37,74.70,33.00,51.78,344.99,105.14,156.73,59.06,145.39,185.27,7.00,53.38,214.33,53.03,72.45,43.34,14.75,23.49,17.00,93.05,500.81,142.21,46.82,85.81,17.04,84.06,10.00,17.83,54.33,6.19,7.81,12.09,10.31,3.68,19.00,27.50,25.24,275.00,4.00,4.00,7.00,41.11,33.18,589.00,4.00,8.00,13.00,21.59,17.81,259.00,4.00,3.00,12.00,48.14,44.52,518.00,4.00,3.00,13.00,5.46,4.45,59.00,3.00,4.00,0.00,0,휴식 (Relax)
-14.38,-22.31,-20.44,-35.38,-3.19,83.05,252.65,40.18,74.00,39.50,72.88,82.32,18.00,61.44,326.30,87.36,152.59,45.86,156.48,195.04,27.00,45.51,222.22,62.95,63.63,38.26,24.70,24.39,7.00,112.82,481.04,123.61,56.85,88.94,33.71,102.92,10.00,16.92,51.29,9.12,5.39,12.11,14.27,0.36,15.00,26.76,24.42,276.00,4.00,3.00,7.00,40.13,31.77,560.00,4.00,7.00,13.00,22.04,18.44,254.00,4.00,4.00,11.00,46.97,43.42,528.00,4.00,4.00,14.00,5.22,4.21,62.00,4.00,4.00,0.00,0,휴식 (Relax)
-36.38,-64.19,-5.12,-55.38,-3.44,83.05,252.65,40.18,74.00,39.50,72.88,82.32,18.00,88.69,299.04,96.05,122.98,37.74,126.86,171.56,3.00,43.57,222.97,64.48,61.27,43.25,21.16,21.55,12.00,112.82,481.04,123.61,56.85,88.94,33.71,102.92,10.00,18.41,47.29,12.64,2.24,8.25,12.22,3.64,19.00,26.76,24.42,228.00,3.00,3.00,7.00,36.29,29.66,455.00,3.00,6.00,13.00,22.08,18.75,253.00,3.00,4.00,11.00,46.97,43.42,443.00,3.00,5.00,14.00,4.96,3.99,58.00,4.00,4.00,0.00,0,휴식 (Relax)
-25.44,-57.00,-3.81,-58.19,-10.94,58.86,244.91,61.93,111.66,26.55,56.94,22.96,81.00,26.59,353.86,19.81,152.61,83.63,73.30,73.18,118.00,49.27,211.38,51.00,80.65,40.78,28.62,40.20,9.00,72.41,476.82,45.83,157.28,105.09,106.76,53.15,105.00,13.27,52.95,15.10,6.08,6.70,16.92,11.44,27.00,26.15,23.17,235.00,3.00,4.00,7.00,36.90,31.50,422.00,3.00,5.00,12.00,21.71,17.91,236.00,3.00,3.00,10.00,47.62,42.96,431.00,3.00,4.00,14.00,5.64,4.45,58.00,3.00,3.00,0.00,0,휴식 (Relax)
-7.44,-51.88,3.25,-21.50,0.38,91.12,213.83,67.82,89.74,54.42,28.21,70.39,33.00,107.89,351.99,95.46,100.85,106.23,49.28,150.79,36.00,77.61,179.52,19.09,96.83,12.18,44.61,7.47,24.00,164.91,415.86,67.12,163.62,37.04,51.78,75.42,2.00,9.96,53.46,20.04,7.21,1.70,11.93,7.51,22.00,24.36,20.49,250.00,3.00,4.00,8.00,38.72,34.14,400.00,3.00,4.00,11.00,19.86,15.59,229.00,4.00,3.00,9.00,43.41,38.12,439.00,3.00,5.00,14.00,5.49,4.22,66.00,4.00,3.00,1.00,0,휴식 (Relax)
33.06,41.81,35.50,84.12,-4.19,98.94,205.94,63.05,82.01,48.40,34.57,62.81,41.00,117.86,345.08,98.53,90.80,95.74,53.56,139.96,47.00,65.61,190.14,22.21,106.51,2.01,56.57,7.84,36.00,142.96,437.04,67.96,184.11,58.85,71.58,91.13,24.00,5.95,49.61,22.81,4.12,7.82,17.34,11.79,29.00,23.59,19.93,266.00,4.00,4.00,8.00,37.88,33.54,471.00,4.00,4.00,11.00,20.96,16.44,236.00,3.00,3.00,9.00,45.68,39.84,513.00,4.00,5.00,14.00,5.56,4.41,62.00,5.00,3.00,1.00,0,휴식 (Relax)
63.00,41.12,38.75,80.69,-1.31,51.62,247.57,111.52,83.49,80.60,83.13,42.27,90.00,110.56,356.00,106.98,86.65,95.63,64.18,130.86,58.00,29.11,208.06,35.51,136.24,42.16,43.28,36.48,8.00,97.04,485.59,122.41,209.41,58.32,30.30,81.26,31.00,11.89,36.27,18.52,10.05,14.68,19.55,12.97,15.00,28.31,23.88,260.00,3.00,4.00,8.00,38.53,34.14,460.00,4.00,4.00,10.00,23.21,18.91,217.00,3.00,3.00,8.00,49.64,44.14,471.00,3.00,5.00,13.00,4.66,3.81,61.00,5.00,4.00,1.00,0,휴식 (Relax)
49.06,50.06,23.19,74.62,6.88,54.65,280.21,153.57,27.00,46.13,68.53,71.52,11.00,105.70,382.40,136.65,56.44,65.54,39.83,150.97,25.00,57.42,200.69,63.05,108.52,57.18,33.48,28.82,49.00,102.81,524.56,189.07,140.36,39.24,88.96,88.82,66.00,14.10,33.56,15.84,10.20,12.38,16.67,10.45,18.00,30.34,26.92,269.00,3.00,5.00,8.00,40.34,35.95,471.00,4.00,4.00,11.00,22.66,18.69,225.00,3.00,3.00,9.00,53.08,49.09,451.00,3.00,5.00,12.00,4.31,3.62,61.00,6.00,4.00,1.00,0,휴식 (Relax)
14.12,68.62,-10.62,36.38,3.75,100.40,273.51,143.00,20.00,6.24,31.35,58.59,58.00,136.78,395.35,147.07,96.38,114.07,61.03,141.72,80.00,86.27,181.59,63.96,81.15,32.94,45.85,5.40,20.00,178.00,507.35,190.03,83.26,72.84,90.59,104.24,18.00,13.24,34.25,17.45,12.17,13.25,14.93,8.53,20.00,29.56,26.48,301.00,3.00,5.00,9.00,43.83,38.95,452.00,3.00,4.00,11.00,20.64,17.03,238.00,4.00,3.00,9.00,52.79,49.70,464.00,3.00,4.00,12.00,4.39,3.75,59.00,5.00,5.00,1.00,0,휴식 (Relax)
-25.38,-18.00,-25.31,-48.88,3.31,108.22,267.58,135.44,21.54,13.62,39.15,55.29,50.00,146.04,390.84,140.07,101.83,114.18,60.93,138.01,70.00,81.53,186.55,68.00,79.38,35.18,50.84,6.32,15.00,197.98,491.69,174.24,101.84,58.84,71.59,88.04,2.00,15.08,32.15,17.42,15.00,6.36,17.91,15.52,13.00,29.07,26.05,340.00,4.00,5.00,10.00,43.51,38.25,508.00,4.00,4.00,11.00,20.98,17.27,233.00,4.00,3.00,9.00,51.39,48.61,518.00,4.00,4.00,12.00,4.40,3.73,57.00,5.00,5.00,1.00,0,휴식 (Relax)
-39.94,-39.25,-23.75,-57.62,-3.81,102.51,274.57,140.23,28.16,18.72,45.15,50.76,43.00,166.04,371.97,121.53,86.31,95.54,47.64,152.20,90.00,64.93,206.81,90.07,56.36,10.95,36.93,24.48,40.00,180.07,511.60,192.17,97.02,70.92,54.02,69.17,22.00,16.68,30.50,15.79,13.45,6.91,18.33,13.73,15.00,29.61,26.43,340.00,4.00,5.00,10.00,42.09,36.84,508.00,4.00,4.00,11.00,21.86,18.59,233.00,3.00,3.00,9.00,52.55,49.70,528.00,4.00,4.00,13.00,4.26,3.59,64.00,6.00,5.00,1.00,0,휴식 (Relax)
-17.94,-29.88,-12.81,-37.62,2.62,102.51,274.57,140.23,28.16,18.72,45.15,50.76,43.00,175.26,362.94,122.16,79.81,102.94,57.46,142.82,80.00,63.72,210.25,90.92,64.66,18.04,33.17,9.84,25.00,180.07,511.60,192.17,97.02,70.92,54.02,69.17,22.00,25.55,21.67,9.13,10.00,14.64,11.41,20.63,6.00,29.61,26.43,306.00,3.00,5.00,10.00,41.57,36.14,434.00,3.00,4.00,11.00,22.11,19.14,238.00,3.00,3.00,10.00,52.55,49.70,474.00,3.00,5.00,13.00,4.04,3.28,62.00,6.00,6.00,1.00,0,휴식 (Relax)
-35.06,-15.88,-25.62,-70.50,-2.06,119.37,282.60,62.24,51.62,59.63,68.88,28.50,35.00,137.32,388.67,63.49,49.01,103.24,115.78,78.86,16.00,84.49,195.26,63.30,94.37,43.28,63.48,42.78,60.00,182.43,513.24,93.67,160.00,135.42,150.54,57.19,136.00,20.75,24.65,7.37,5.00,18.39,6.49,23.93,1.00,29.37,25.33,304.00,3.00,5.00,10.00,40.19,34.62,411.00,3.00,3.00,11.00,23.00,19.61,218.00,3.00,3.00,10.00,54.81,50.56,481.00,3.00,5.00,13.00,4.02,3.30,67.00,7.00,7.00,1.00,0,휴식 (Relax)
-51.38,-60.81,-7.19,-33.19,-5.50,185.53,252.11,78.62,84.20,78.75,92.71,54.65,40.00,154.86,373.25,45.70,32.02,172.84,105.14,155.96,97.00,137.30,146.83,22.79,86.15,38.19,26.19,28.98,5.00,274.78,451.12,47.38,129.71,192.42,71.52,60.38,19.00,15.11,25.71,3.18,10.30,22.27,14.93,21.94,10.00,31.85,25.89,317.00,3.00,4.00,11.00,42.97,37.16,417.00,3.00,3.00,11.00,20.03,16.13,204.00,3.00,4.00,10.00,51.84,46.48,489.00,3.00,6.00,13.00,4.20,3.50,68.00,7.00,6.00,1.00,0,휴식 (Relax)
24.12,3.25,18.81,30.88,-2.88,193.53,245.12,86.20,79.61,71.39,84.72,46.68,32.00,209.02,326.22,109.64,71.55,134.44,59.38,109.29,32.00,137.30,146.83,22.79,86.15,38.19,26.19,28.98,5.00,307.56,420.07,79.45,97.29,162.68,61.04,34.86,52.00,17.52,22.78,8.99,17.49,12.80,12.85,20.60,0.00,31.41,25.23,360.00,4.00,5.00,11.00,39.66,32.59,423.00,4.00,4.00,11.00,20.03,16.13,199.00,3.00,4.00,10.00,49.97,43.91,497.00,4.00,6.00,13.00,3.92,3.23,65.00,7.00,6.00,1.00,0,휴식 (Relax)
52.62,54.56,27.19,60.50,-2.56,143.64,299.45,99.01,130.30,92.13,57.85,26.32,24.00,166.29,369.18,106.27,98.60,166.23,23.78,108.41,11.00,104.28,173.34,26.52,101.79,53.43,16.23,13.42,47.00,256.14,469.74,86.24,121.04,176.35,40.57,57.22,106.00,21.73,19.19,10.60,15.52,13.54,9.25,22.54,5.00,34.22,29.59,392.00,3.00,5.00,12.00,41.92,35.62,477.00,4.00,4.00,12.00,20.99,17.89,200.00,3.00,3.00,10.00,52.29,48.12,489.00,3.00,5.00,13.00,3.94,3.20,65.00,7.00,6.00,1.00,0,휴식 (Relax)
4.12,-26.88,57.69,44.25,-0.38,139.11,303.81,106.95,127.88,84.51,53.20,20.13,16.00,206.13,340.26,67.64,78.45,202.65,18.43,135.07,52.00,107.44,194.06,110.01,56.08,43.54,79.88,77.25,41.00,201.75,508.77,170.18,75.80,92.36,111.86,31.59,22.00,24.72,16.20,9.20,12.65,15.91,12.22,20.28,2.00,34.23,29.73,432.00,3.00,6.00,13.00,42.39,36.09,540.00,4.00,5.00,12.00,24.93,21.64,231.00,3.00,3.00,11.00,52.78,49.72,490.00,3.00,5.00,13.00,3.89,3.02,64.00,6.00,6.00,1.00,1,주먹 쥐기 (Fist)
33.12,73.75,13.12,91.19,2.44,138.53,298.09,128.57,82.76,100.19,100.56,66.93,64.00,144.06,347.26,143.23,25.50,217.29,96.37,217.89,138.00,140.94,185.33,126.28,15.30,28.87,52.17,39.85,0.00,221.26,495.85,247.47,55.11,183.48,59.62,110.51,151.00,21.86,18.60,12.20,12.04,18.50,14.70,17.52,1.00,35.15,31.25,442.00,3.00,6.00,13.00,46.44,41.56,606.00,5.00,6.00,12.00,24.29,21.36,258.00,3.00,4.00,11.00,57.28,54.06,525.00,3.00,6.00,13.00,3.94,3.20,67.00,7.00,6.00,1.00,1,주먹 쥐기 (Fist)
6.25,4.94,-22.25,-48.44,-8.06,167.39,266.13,112.29,110.39,131.95,70.44,25.78,18.00,143.38,317.98,159.36,39.56,264.74,78.73,158.25,77.00,131.03,193.22,132.30,19.85,38.81,55.99,35.38,10.00,228.83,489.04,244.66,57.94,184.71,50.03,100.69,141.00,28.34,18.80,11.48,20.02,19.44,18.34,9.54,9.00,33.87,29.38,459.00,5.00,7.00,14.00,44.45,39.32,671.00,5.00,7.00,13.00,24.74,21.91,294.00,4.00,4.00,12.00,56.70,53.44,654.00,4.00,6.00,13.00,4.45,3.58,70.00,8.00,6.00,2.00,1,주먹 쥐기 (Fist)
-25.25,-74.81,-21.62,-59.06,12.56,174.82,258.16,104.49,115.97,125.00,68.52,29.86,26.00,133.19,336.72,173.20,49.04,281.74,94.69,142.72,57.00,121.37,203.13,141.93,13.93,35.25,46.56,36.26,0.00,238.39,479.05,234.74,48.75,175.02,59.11,109.15,151.00,23.30,11.42,10.73,30.48,14.78,27.12,13.24,31.00,33.44,28.88,475.00,6.00,7.00,14.00,46.26,40.41,752.00,6.00,7.00,14.00,25.16,22.45,289.00,4.00,4.00,12.00,55.99,52.81,634.00,4.00,6.00,13.00,5.10,4.12,81.00,8.00,6.00,2.00,1,주먹 쥐기 (Fist)
-58.56,-45.44,-34.75,-67.19,17.50,131.84,292.23,134.29,149.21,137.86,40.97,58.37,69.00,140.95,327.70,164.10,41.77,280.48,104.50,138.63,47.00,99.48,222.62,148.77,17.72,20.74,75.03,50.74,30.00,208.56,501.60,251.11,67.36,158.72,75.81,129.34,181.00,35.88,18.09,22.23,43.57,28.53,31.32,4.54,14.00,36.40,31.62,471.00,3.00,7.00,14.00,45.57,39.87,689.00,5.00,8.00,14.00,26.66,24.09,271.00,3.00,4.00,12.00,57.74,54.69,537.00,3.00,6.00,13.00,6.80,5.31,82.00,7.00,5.00,2.00,1,주먹 쥐기 (Fist)
-53.38,27.25,-30.81,-39.88,-6.38,65.64,317.44,136.24,207.20,55.28,121.23,65.92,14.00,130.37,331.45,163.96,34.41,269.94,111.08,139.12,36.00,99.17,229.79,109.71,70.09,82.08,69.12,25.08,33.00,120.54,524.63,214.57,89.05,124.47,140.66,132.88,64.00,33.91,17.95,22.51,44.65,30.01,33.25,6.53,12.00,38.40,33.75,438.00,3.00,6.00,13.00,45.08,39.09,761.00,6.00,8.00,15.00,26.85,23.52,265.00,3.00,3.00,12.00,55.81,52.36,557.00,3.00,7.00,14.00,6.90,5.42,104.00,8.00,6.00,3.00,1,주먹 쥐기 (Fist)
1.69,-30.19,38.19,25.56,-17.38,82.14,301.44,97.73,176.17,94.54,79.17,24.80,51.00,58.23,308.87,101.47,49.24,321.33,139.11,123.98,109.00,99.17,229.79,109.71,70.09,82.08,69.12,25.08,33.00,123.22,501.79,163.43,73.11,174.16,87.74,96.94,119.00,18.60,31.28,38.30,58.60,38.16,21.20,9.97,28.00,34.83,29.69,480.00,4.00,6.00,14.00,44.67,37.73,812.00,7.00,9.00,15.00,26.85,23.52,322.00,4.00,3.00,12.00,52.55,48.49,619.00,4.00,7.00,15.00,8.21,6.30,108.00,7.00,5.00,4.00,1,주먹 쥐기 (Fist)
115.81,105.38,15.88,145.25,17.88,40.90,353.11,159.73,235.51,101.53,116.67,61.09,113.00,107.78,356.12,152.54,57.01,308.86,193.77,118.86,164.00,109.10,219.16,106.69,59.48,75.72,79.49,26.46,44.00,97.04,565.82,219.25,142.06,227.36,85.83,60.25,188.00,28.34,20.50,34.03,64.64,49.65,25.92,21.86,40.00,43.43,33.84,566.00,4.00,6.00,14.00,50.43,42.03,929.00,8.00,9.00,15.00,26.31,22.66,313.00,3.00,4.00,12.00,61.12,53.34,710.00,4.00,7.00,15.00,9.26,7.14,141.00,8.00,6.00,5.00,1,주먹 쥐기 (Fist)
67.75,82.69,24.88,74.19,14.12,41.08,400.77,184.29,228.22,139.64,68.08,44.21,64.00,116.32,366.67,153.88,66.04,319.53,185.42,122.11,153.00,77.12,247.42,82.79,58.94,44.47,98.19,40.36,76.00,87.28,596.02,217.24,146.74,235.96,56.95,81.70,155.00,37.16,21.42,44.47,74.79,49.45,14.19,12.52,28.00,46.48,37.28,572.00,3.00,7.00,14.00,51.47,42.89,865.00,7.00,10.00,15.00,27.05,24.27,309.00,3.00,5.00,12.00,63.07,55.66,695.00,3.00,8.00,15.00,9.92,7.98,144.00,8.00,7.00,5.00,1,주먹 쥐기 (Fist)
-20.25,66.31,-26.81,77.19,19.00,41.08,400.77,184.29,228.22,139.64,68.08,44.21,64.00,176.02,415.17,92.28,75.74,277.36,208.79,90.59,239.00,81.83,245.85,87.53,63.79,44.22,98.21,42.83,81.00,113.89,654.51,111.89,39.56,108.48,184.48,55.74,283.00,49.03,38.55,59.08,67.72,32.59,31.21,24.23,46.00,46.48,37.28,645.00,4.00,6.00,14.00,54.12,47.15,856.00,7.00,9.00,15.00,27.33,24.54,361.00,4.00,6.00,13.00,65.22,58.31,696.00,3.00,8.00,15.00,11.06,9.38,143.00,5.00,7.00,5.00,1,주먹 쥐기 (Fist)
-21.19,18.44,-43.38,-23.31,20.25,41.69,397.77,169.45,229.37,137.08,72.14,56.94,49.00,215.88,413.73,31.58,51.35,237.05,234.95,126.03,177.00,100.24,257.20,92.29,72.72,24.52,115.21,44.92,58.00,136.10,646.89,74.62,14.32,133.10,160.32,41.92,243.00,66.68,64.06,61.86,41.59,56.60,28.64,23.40,18.00,45.90,36.46,623.00,4.00,5.00,13.00,53.35,46.38,890.00,7.00,9.00,15.00,28.99,25.80,369.00,4.00,5.00,13.00,63.58,55.81,774.00,4.00,8.00,15.00,12.13,10.69,139.00,3.00,6.00,5.00,1,주먹 쥐기 (Fist)
15.81,120.19,-45.06,5.44,16.12,48.06,371.83,164.82,261.20,168.10,44.64,25.24,81.00,320.11,327.41,165.79,113.16,398.71,83.66,62.74,341.00,125.10,293.35,69.09,45.49,60.19,78.58,33.67,95.00,160.41,605.46,93.73,66.07,160.26,156.70,49.97,295.00,76.47,73.87,49.79,52.33,59.44,13.69,12.81,36.00,45.94,36.71,640.00,7.00,5.00,13.00,61.11,52.44,992.00,7.00,9.00,15.00,31.12,27.82,358.00,4.00,4.00,12.00,62.61,53.24,766.00,5.00,8.00,15.00,12.83,11.86,137.00,3.00,7.00,5.00,1,주먹 쥐기 (Fist)
-64.44,-90.06,9.75,-67.81,-6.88,51.81,399.60,140.03,265.35,185.68,16.92,5.70,109.00,295.20,382.71,141.82,130.86,418.33,24.77,103.00,401.00,113.96,264.86,103.99,77.16,76.02,65.03,43.57,130.00,166.38,585.59,113.18,68.15,141.29,170.13,47.40,275.00,76.47,73.87,49.79,52.33,59.44,13.69,12.81,36.00,47.85,38.44,701.00,6.00,5.00,13.00,64.80,56.19,1156.00,8.00,9.00,15.00,30.65,27.12,400.00,5.00,5.00,12.00,61.05,51.84,808.00,6.00,9.00,15.00,12.83,11.86,156.00,4.00,7.00,6.00,1,주먹 쥐기 (Fist)
-44.31,-42.56,-32.75,-122.50,-10.88,42.85,391.17,151.41,251.64,180.18,15.26,19.03,123.00,295.70,346.54,111.60,98.41,391.34,37.28,129.55,441.00,111.42,268.99,98.79,87.92,68.12,81.45,55.93,154.00,182.15,630.78,121.68,136.07,154.21,239.13,99.89,206.00,76.47,73.87,49.79,52.33,59.44,13.69,12.81,36.00,46.91,37.56,647.00,5.00,6.00,13.00,62.39,53.69,1146.00,8.00,10.00,15.00,31.69,28.62,418.00,5.00,6.00,12.00,67.11,56.69,805.00,5.00,9.00,15.00,12.83,11.86,158.00,4.00,7.00,6.00,1,주먹 쥐기 (Fist)
-33.94,-115.38,33.19,-40.25,-14.50,92.54,386.62,170.63,246.00,126.20,68.09,72.66,177.00,339.47,389.21,207.34,80.11,298.62,136.03,194.59,540.00,118.96,278.51,84.21,74.41,51.66,98.41,63.72,171.00,222.81,631.41,173.67,151.61,102.23,205.53,47.99,258.00,79.52,79.84,44.86,56.73,55.75,14.34,7.19,42.00,47.53,38.43,622.00,5.00,5.00,12.00,68.89,59.88,1171.00,7.00,10.00,15.00,32.52,29.69,474.00,6.00,7.00,12.00,67.88,58.88,851.00,5.00,9.00,15.00,13.16,12.19,162.00,4.00,7.00,6.00,1,주먹 쥐기 (Fist)
60.50,78.88,11.25,44.75,-10.38,83.62,393.13,161.70,255.00,122.75,75.25,80.86,186.00,303.74,401.17,202.99,121.56,302.69,169.07,220.38,584.00,105.97,261.75,98.80,64.50,42.99,110.33,69.23,188.00,222.81,631.41,173.67,151.61,102.23,205.53,47.99,258.00,81.17,81.13,43.15,55.44,57.70,12.58,9.18,40.00,48.19,39.06,669.00,6.00,4.00,12.00,71.18,62.62,1284.00,7.00,10.00,15.00,31.89,28.62,461.00,6.00,7.00,12.00,67.88,58.88,925.00,6.00,8.00,15.00,13.25,12.30,164.00,4.00,8.00,6.00,1,주먹 쥐기 (Fist)
