a0,a1,a2,a3,a4,a0_f1,a0_f2,a0_f3,a0_f4,a0_f5,a0_f6,a0_f7,a0_f8,a1_f1,a1_f2,a1_f3,a1_f4,a1_f5,a1_f6,a1_f7,a1_f8,a2_f1,a2_f2,a2_f3,a2_f4,a2_f5,a2_f6,a2_f7,a2_f8,a3_f1,a3_f2,a3_f3,a3_f4,a3_f5,a3_f6,a3_f7,a3_f8,a4_f1,a4_f2,a4_f3,a4_f4,a4_f5,a4_f6,a4_f7,a4_f8,a0_rms,a0_mav,a0_wl,a0_zc,a1_rms,a1_mav,a1_wl,a1_zc,a2_rms,a2_mav,a2_wl,a2_zc,a3_rms,a3_mav,a3_wl,a3_zc,a4_rms,a4_mav,a4_wl,a4_zc,label,action_name
0.00,0.00,0.00,0.00,0.00,0.00,0.00,0.00,0.00,0.00,0.00,0.00,0.00,0.00,0.00,0.00,0.00,0.00,0.00,0.00,0.00,0.00,0.00,0.00,0.00,0.00,0.00,0.00,0.00,0.00,0.00,0.00,0.00,0.00,0.00,0.00,0.00,0.00,0.00,0.00,0.00,0.00,0.00,0.00,0.00,0.00,0.00,0.00,0.00,0.00,0.00,0.00,0.00,0.00,0.00,0.00,0.00,0.00,0.00,0.00,0.00,0.00,0.00,0.00,0.00,0,휴식 (Relax)
7.50,-10.31,10.31,0.00,1.88,8.00,8.00,8.00,8.00,8.00,8.00,8.00,8.00,11.00,11.00,11.00,11.00,11.00,11.00,11.00,11.00,11.00,11.00,11.00,11.00,11.00,11.00,11.00,11.00,0.00,0.00,0.00,0.00,0.00,0.00,0.00,0.00,2.00,2.00,2.00,2.00,2.00,2.00,2.00,2.00,1.94,0.94,8.00,1.00,2.66,1.29,11.00,1.00,2.66,1.29,11.00,1.00,0.00,0.00,0.00,0.00,0.48,0.23,2.00,0.00,0,휴식 (Relax)
-0.50,-30.25,-0.69,-20.62,-0.12,8.00,8.00,8.00,8.00,8.00,8.00,8.00,8.00,43.37,41.51,38.57,34.79,30.53,26.39,23.22,22.00,11.00,11.00,11.00,11.00,11.00,11.00,11.00,11.00,22.00,22.00,22.00,22.00,22.00,22.00,22.00,22.00,2.00,2.00,2.00,2.00,2.00,2.00,2.00,2.00,1.94,0.94,16.00,2.00,8.25,4.81,33.00,1.00,2.66,1.29,22.00,2.00,5.33,2.58,22.00,1.00,0.48,0.23,4.00,0.00,0,휴식 (Relax)
14.50,-7.56,9.62,22.00,1.75,22.38,17.89,11.79,8.00,11.79,17.89,22.38,24.00,53.33,48.56,41.42,33.00,24.58,17.44,12.67,11.00,20.33,15.56,8.42,0.00,8.42,15.56,20.33,22.00,8.58,16.84,24.45,31.11,36.58,40.65,43.15,44.00,3.70,2.83,1.53,0.00,1.53,2.83,3.70,4.00,4.21,2.62,32.00,3.00,8.45,5.59,55.00,1.00,3.64,2.41,33.00,3.00,7.78,2.75,66.00,1.00,0.66,0.44,6.00,0.00,0,휴식 (Relax)
21.00,24.06,4.25,10.31,1.62,43.97,34.17,25.58,25.30,27.85,24.99,14.85,0.00,40.85,53.31,59.06,55.00,43.05,28.08,15.82,11.00,24.93,16.67,5.95,6.00,13.35,16.67,16.63,16.00,17.31,27.33,35.30,39.66,40.21,37.83,34.55,33.00,5.30,3.46,1.42,2.00,3.27,3.46,2.68,2.00,6.86,4.88,40.00,3.00,10.45,6.10,88.00,2.00,3.78,2.84,38.00,3.00,8.22,3.95,77.00,1.00,0.78,0.61,6.00,0.00,0,휴식 (Relax)
12.00,22.69,-6.44,9.62,7.12,57.11,41.36,29.02,25.30,19.39,9.02,11.36,16.00,46.36,74.30,77.63,59.24,31.10,6.71,7.31,11.00,22.66,19.25,10.74,7.81,17.44,21.34,16.71,11.00,28.31,37.16,39.55,34.79,29.25,32.23,40.23,44.00,12.01,8.16,7.46,8.25,6.31,4.62,8.02,10.00,7.48,6.00,48.00,3.00,11.97,6.62,88.00,2.00,4.11,2.96,49.00,4.00,8.59,4.98,77.00,1.00,2.00,1.31,12.00,0.00,0,휴식 (Relax)
-11.50,-9.62,-6.12,-22.00,-0.88,52.61,43.19,34.61,32.98,26.29,7.41,14.39,24.00,38.48,65.05,79.40,69.57,40.20,11.16,16.71,22.00,23.28,24.22,14.21,12.08,18.77,17.01,14.69,16.00,11.20,35.20,55.68,56.09,31.19,14.58,50.78,66.00,12.01,8.16,7.46,8.25,6.31,4.62,8.02,10.00,7.98,6.25,72.00,4.00,12.22,7.56,121.00,3.00,4.39,3.08,49.00,4.00,10.29,5.50,110.00,2.00,2.00,1.31,20.00,1.00,0,휴식 (Relax)
4.00,-29.56,14.81,0.00,-3.69,54.33,36.21,27.70,32.00,32.69,15.00,18.24,32.00,17.64,67.78,112.09,85.91,24.77,22.08,23.38,11.00,19.17,15.40,24.94,24.60,35.77,21.66,14.11,33.00,11.20,35.20,55.68,56.09,31.19,14.58,50.78,66.00,11.10,9.80,10.06,11.18,7.95,5.82,7.24,7.00,8.00,6.50,88.00,5.00,14.40,10.23,143.00,3.00,5.81,4.53,71.00,5.00,10.29,5.50,132.00,2.00,2.20,1.41,23.00,1.00,0,휴식 (Relax)
18.50,-17.19,8.12,0.00,1.19,57.06,13.86,40.19,56.00,43.77,13.86,25.24,8.00,21.19,88.08,124.28,70.43,8.36,15.11,2.74,11.00,19.95,23.84,34.59,31.11,33.21,10.76,15.97,22.00,11.20,35.20,55.68,56.09,31.19,14.58,50.78,66.00,10.86,7.81,8.68,11.70,9.85,7.81,8.11,5.00,9.26,7.88,104.00,5.00,15.05,11.52,154.00,3.00,6.15,5.20,77.00,5.00,10.29,5.50,132.00,2.00,2.21,1.49,28.00,2.00,0,휴식 (Relax)
9.50,15.12,-2.88,10.31,1.06,58.24,19.31,55.10,58.24,29.27,3.31,11.77,24.00,20.39,78.27,130.05,79.32,3.44,25.50,9.08,22.00,19.95,23.84,34.59,31.11,33.21,10.76,15.97,22.00,8.57,30.78,66.48,55.00,24.08,16.21,46.77,77.00,10.21,6.40,9.80,13.60,9.83,6.40,6.57,7.00,9.47,8.31,112.00,5.00,15.50,12.03,187.00,4.00,6.15,5.20,88.00,6.00,10.63,6.53,143.00,3.00,2.22,1.55,28.00,2.00,0,휴식 (Relax)
1.00,4.12,-2.88,9.62,3.75,57.35,27.31,56.30,50.60,29.18,4.69,19.23,16.00,20.39,78.27,130.05,79.32,3.44,25.50,9.08,22.00,19.95,23.84,34.59,31.11,33.21,10.76,15.97,22.00,13.83,37.56,72.98,44.00,35.00,6.44,54.20,66.00,8.28,8.55,14.66,13.04,5.26,7.68,11.35,2.00,9.33,8.00,120.00,5.00,15.50,12.03,198.00,4.00,6.15,5.20,88.00,6.00,10.91,7.39,143.00,3.00,2.41,1.78,31.00,2.00,0,휴식 (Relax)
8.00,-16.50,13.06,-1.38,-4.06,52.64,40.25,44.19,48.00,43.80,13.11,3.74,32.00,12.40,70.41,127.60,98.39,25.38,29.16,18.56,0.00,13.73,25.56,25.98,44.78,41.74,14.17,2.45,39.00,13.83,37.56,72.98,44.00,35.00,6.44,54.20,66.00,10.11,5.55,14.36,16.03,3.25,7.69,14.32,1.00,9.38,8.00,128.00,2.00,16.04,13.06,220.00,5.00,6.98,6.17,105.00,7.00,10.91,7.39,154.00,4.00,2.61,1.95,39.00,3.00,0,휴식 (Relax)
22.00,36.44,-8.62,-1.38,3.62,45.13,58.04,18.01,80.00,32.78,21.72,34.24,0.00,34.95,99.89,98.38,116.93,49.14,61.78,51.56,33.00,15.61,27.63,22.24,42.54,46.52,15.50,7.08,44.00,13.83,37.56,72.98,44.00,35.00,6.44,54.20,66.00,5.83,9.91,9.92,16.49,7.59,6.46,18.81,6.00,10.77,9.25,144.00,5.00,18.54,14.87,275.00,6.00,7.25,6.41,127.00,8.00,10.91,7.39,154.00,4.00,2.76,2.12,47.00,4.00,0,휴식 (Relax)
-2.50,3.44,2.00,8.94,6.12,43.51,59.04,23.61,80.40,25.27,15.06,27.41,8.00,34.95,99.89,98.38,116.93,49.14,61.78,51.56,33.00,11.37,21.92,27.90,37.12,47.52,14.55,13.03,50.00,15.14,39.13,70.49,45.35,44.99,12.75,44.42,77.00,3.18,15.04,5.57,24.33,6.50,13.03,14.30,2.00,10.48,8.81,168.00,6.00,18.54,14.87,308.00,6.00,7.21,6.38,138.00,9.00,11.15,8.08,165.00,5.00,3.16,2.39,50.00,4.00,0,휴식 (Relax)
-10.50,13.75,-4.00,8.25,0.00,43.51,59.04,23.61,80.40,25.27,15.06,27.41,8.00,45.20,104.52,101.44,110.00,38.75,63.87,59.90,44.00,11.37,21.92,27.90,37.12,47.52,14.55,13.03,50.00,19.63,35.20,80.10,34.79,46.15,14.58,51.81,66.00,4.51,15.45,7.43,24.08,4.52,11.20,14.42,0.00,10.48,8.81,176.00,6.00,18.85,15.47,319.00,6.00,7.21,6.38,144.00,10.00,11.34,8.59,165.00,5.00,3.12,2.25,56.00,3.00,0,휴식 (Relax)
-10.50,-17.88,-8.69,-23.38,-2.00,43.51,59.04,23.61,80.40,25.27,15.06,27.41,8.00,32.03,113.04,79.49,128.28,28.27,56.52,73.54,66.00,16.31,24.08,32.41,32.76,51.84,19.54,10.57,45.00,24.72,55.08,64.91,46.67,67.94,36.36,64.12,44.00,4.51,15.45,7.43,24.08,4.52,11.20,14.42,0.00,10.48,8.81,176.00,6.00,19.40,16.50,352.00,7.00,7.48,6.65,149.00,10.00,12.83,9.80,198.00,6.00,3.12,2.25,58.00,3.00,0,휴식 (Relax)
-3.00,-26.81,6.62,-22.00,-4.81,35.88,52.59,16.05,88.36,17.27,7.10,26.77,0.00,46.10,144.92,71.06,114.84,17.78,85.51,67.89,33.00,6.44,28.77,25.64,39.60,51.80,28.57,15.81,34.00,45.45,75.58,78.41,34.79,60.41,24.07,60.20,66.00,5.10,18.36,9.18,24.02,2.80,10.25,16.43,3.00,10.15,8.38,176.00,6.00,20.57,17.79,352.00,6.00,7.61,6.88,154.00,10.00,14.02,11.00,198.00,3.00,3.32,2.48,59.00,4.00,0,휴식 (Relax)
12.00,-4.81,1.94,10.31,3.00,19.92,53.30,12.03,91.21,27.81,22.08,35.29,16.00,46.10,144.92,71.06,114.84,17.78,85.51,67.89,33.00,9.66,23.85,22.85,43.28,47.46,30.42,20.60,29.00,34.61,71.26,68.33,45.35,69.90,31.17,65.20,77.00,3.35,15.90,6.48,27.02,0.56,7.95,19.25,6.00,10.58,9.00,184.00,7.00,20.57,17.79,352.00,6.00,7.44,6.56,148.00,9.00,14.27,11.69,209.00,7.00,3.41,2.62,65.00,4.00,0,휴식 (Relax)
-4.50,24.75,-4.06,18.56,5.50,13.41,60.11,20.03,83.52,30.52,18.84,28.13,8.00,8.94,142.82,48.36,112.18,72.38,81.90,44.97,88.00,9.66,23.85,22.85,43.28,47.46,30.42,20.60,29.00,24.35,98.75,83.16,55.00,45.53,13.02,39.38,33.00,6.43,16.90,11.01,28.46,8.38,15.95,11.29,2.00,10.19,8.50,184.00,7.00,20.39,17.88,363.00,7.00,7.44,6.56,143.00,9.00,13.87,11.26,176.00,6.00,3.66,3.00,66.00,7.00,0,휴식 (Relax)
-11.50,2.06,-8.06,-12.38,-0.50,24.58,44.89,20.19,89.44,46.49,30.48,12.44,8.00,19.72,151.84,58.87,101.41,69.56,72.52,49.39,77.00,19.76,25.98,23.97,32.76,53.57,17.53,35.35,13.00,16.66,65.91,51.41,83.77,74.96,44.14,33.76,0.00,6.43,16.90,11.01,28.46,8.38,15.95,11.29,2.00,10.57,8.94,184.00,7.00,20.29,17.45,352.00,6.00,7.51,6.57,143.00,9.00,13.40,11.00,198.00,7.00,3.66,3.00,72.00,8.00,0,휴식 (Relax)
-10.00,-17.19,-2.69,-11.00,-2.38,43.55,41.36,44.19,68.82,44.65,9.02,36.41,16.00,28.75,109.04,46.95,118.98,109.12,30.61,88.37,33.00,23.96,31.71,29.97,27.80,47.64,23.51,30.96,19.00,32.23,55.08,55.12,94.63,62.09,36.36,41.81,22.00,6.00,15.05,11.50,29.15,9.83,16.05,12.61,0.00,10.39,8.50,176.00,7.00,19.82,17.19,374.00,7.00,7.51,6.48,137.00,8.00,13.47,11.00,198.00,4.00,3.71,3.09,68.00,7.00,0,휴식 (Relax)
13.50,6.19,2.62,21.31,0.00,38.79,35.31,41.88,73.76,52.51,12.69,43.82,24.00,50.74,100.18,68.56,101.41,95.54,42.69,66.40,55.00,21.29,22.77,27.87,22.80,46.35,32.58,28.94,30.00,26.73,51.39,44.12,103.77,69.62,44.24,51.54,33.00,9.79,14.03,17.50,23.71,5.37,11.96,11.71,6.00,10.85,9.12,176.00,7.00,18.64,15.81,363.00,7.00,7.27,6.30,143.00,9.00,14.27,11.77,198.00,7.00,3.41,2.62,62.00,3.00,0,휴식 (Relax)
11.50,15.81,1.94,8.25,-0.12,46.09,3.31,70.69,53.67,44.57,19.31,29.61,8.00,31.87,92.33,60.10,116.93,109.48,48.63,47.56,77.00,27.45,24.96,38.27,12.53,36.43,31.29,26.74,19.00,43.28,28.74,42.99,124.45,41.71,11.91,18.61,0.00,7.86,12.64,16.76,24.70,6.78,10.02,12.78,8.00,10.19,9.06,160.00,7.00,19.04,16.41,352.00,7.00,6.96,5.94,121.00,8.00,13.19,11.00,187.00,7.00,3.37,2.55,59.00,6.00,0,휴식 (Relax)
3.00,13.06,-7.69,-2.75,5.19,52.93,6.12,76.26,46.65,37.01,14.78,27.64,0.00,40.67,58.74,99.21,93.98,70.39,74.19,79.36,33.00,11.31,8.95,29.93,19.42,23.55,49.90,27.31,3.00,43.28,28.74,42.99,124.45,41.71,11.91,18.61,0.00,3.31,1.83,26.09,16.40,6.02,20.26,6.64,3.00,10.15,9.00,152.00,6.00,17.91,14.95,341.00,7.00,6.42,5.52,126.00,9.00,13.19,11.00,198.00,8.00,3.38,2.77,60.00,7.00,0,휴식 (Relax)
-26.50,-30.25,-2.00,-33.69,-5.50,13.90,34.42,98.05,43.08,30.45,47.66,36.02,40.00,30.70,69.66,92.02,104.36,73.50,85.13,86.32,22.00,9.61,6.53,40.10,16.00,16.47,39.77,28.92,8.00,11.24,60.56,41.93,149.62,8.82,30.50,48.93,33.00,1.76,6.78,22.66,20.59,10.53,23.20,6.66,8.00,11.91,9.81,176.00,7.00,18.85,15.81,352.00,7.00,6.07,5.00,120.00,8.00,15.78,13.06,220.00,7.00,3.66,3.00,71.00,8.00,0,휴식 (Relax)
5.50,-6.88,3.62,10.31,-0.50,13.90,34.42,98.05,43.08,30.45,47.66,36.02,40.00,9.19,87.93,104.56,99.61,51.51,73.05,81.59,44.00,11.21,9.57,36.38,22.00,10.49,38.22,33.24,14.00,11.24,60.56,41.93,149.62,8.82,30.50,48.93,33.00,1.76,6.78,22.66,20.59,10.53,23.20,6.66,8.00,11.91,9.81,200.00,7.00,18.60,15.64,363.00,7.00,6.12,5.17,126.00,9.00,15.78,13.06,264.00,8.00,3.66,3.00,73.00,7.00,0,휴식 (Relax)
12.50,14.44,-7.06,10.31,2.50,29.44,36.96,98.93,51.22,30.07,45.72,38.70,24.00,20.19,85.67,94.12,110.55,47.86,77.27,85.55,55.00,7.78,4.58,33.93,22.56,10.30,41.24,38.03,19.00,11.24,60.56,41.93,149.62,8.82,30.50,48.93,33.00,1.76,6.78,22.66,20.59,10.53,23.20,6.66,8.00,12.32,10.50,200.00,6.00,18.94,16.24,363.00,7.00,6.36,5.45,120.00,9.00,15.78,13.06,253.00,7.00,3.66,3.00,68.00,7.00,0,휴식 (Relax)
12.00,12.38,9.31,-0.69,-2.69,36.48,44.42,106.69,45.25,22.19,40.14,33.63,32.00,52.23,108.67,98.01,112.18,28.58,47.19,65.37,22.00,4.63,4.70,27.94,28.44,4.54,35.27,32.08,13.00,11.24,60.56,41.93,149.62,8.82,30.50,48.93,33.00,2.43,9.26,22.01,19.31,8.51,20.20,5.00,11.00,12.65,11.00,184.00,6.00,18.60,15.47,308.00,6.00,5.60,5.02,114.00,9.00,15.78,13.06,264.00,8.00,3.44,2.86,65.00,7.00,0,휴식 (Relax)
-10.00,-17.19,3.62,-11.00,-0.50,27.99,20.91,91.55,71.55,26.86,8.66,18.82,64.00,28.80,54.24,43.69,166.46,27.44,14.28,42.81,33.00,13.66,6.32,33.13,32.25,8.25,27.64,23.32,2.00,19.02,49.79,31.92,158.64,15.26,20.62,47.53,44.00,0.85,6.44,19.51,22.14,10.44,18.40,3.70,14.00,11.83,10.25,184.00,6.00,16.94,15.04,308.00,7.00,5.41,4.88,108.00,8.00,16.04,13.75,264.00,5.00,3.39,2.69,64.00,7.00,0,휴식 (Relax)
-9.50,-36.44,3.62,-9.62,-4.81,33.51,25.08,97.62,68.35,19.84,16.34,21.76,56.00,67.12,47.51,39.77,177.71,47.06,29.81,69.04,11.00,13.66,6.32,33.13,32.25,8.25,27.64,23.32,2.00,40.89,42.36,40.55,147.58,29.30,33.31,59.74,22.00,11.40,10.59,11.67,21.38,4.49,19.44,13.18,3.00,12.07,10.69,176.00,6.00,19.34,17.19,319.00,7.00,5.41,4.88,102.00,7.00,15.98,13.92,264.00,7.00,3.32,2.48,63.00,5.00,0,휴식 (Relax)
13.00,18.56,3.25,22.69,0.19,13.25,2.54,77.36,91.21,34.02,35.69,43.57,32.00,67.12,47.51,39.77,177.71,47.06,29.81,69.04,11.00,19.19,8.50,27.20,29.73,8.07,32.68,24.05,4.00,30.64,36.48,30.13,157.50,38.67,36.48,69.90,11.00,11.40,10.59,11.67,21.38,4.49,19.44,13.18,3.00,12.29,11.00,200.00,7.00,19.34,17.19,341.00,7.00,5.44,4.91,97.00,7.00,16.71,14.52,264.00,7.00,3.32,2.48,66.00,6.00,0,휴식 (Relax)
11.50,26.81,2.56,9.62,2.88,14.52,21.68,86.53,88.00,18.91,34.55,19.82,56.00,34.20,14.28,49.57,198.31,69.85,54.24,26.28,33.00,28.38,13.54,27.02,19.72,17.81,22.24,19.58,7.00,25.59,12.41,44.38,146.76,52.79,56.87,36.93,44.00,8.94,8.77,7.02,22.85,5.05,24.15,9.24,8.00,12.32,10.94,192.00,7.00,20.20,17.79,341.00,7.00,5.10,4.45,81.00,6.00,15.98,13.75,275.00,7.00,3.37,2.55,66.00,7.00,0,휴식 (Relax)
3.00,13.06,-7.44,-2.75,-0.44,20.50,27.71,94.46,80.00,13.39,27.71,26.78,48.00,53.22,54.24,92.47,163.53,35.89,14.28,65.34,11.00,21.61,19.81,11.81,18.03,30.69,21.85,17.42,23.00,44.87,14.58,65.02,125.42,33.12,35.20,57.53,22.00,10.71,12.50,8.98,18.36,1.26,19.84,11.96,3.00,12.29,10.75,184.00,6.00,19.14,16.33,330.00,7.00,5.09,4.63,87.00,7.00,14.81,12.38,253.00,7.00,3.10,2.35,61.00,7.00,0,휴식 (Relax)
-11.50,-29.56,3.56,-12.38,-2.12,21.12,33.45,90.98,83.52,11.05,5.74,46.49,24.00,32.87,37.83,90.05,179.07,51.94,27.33,83.60,33.00,21.61,19.81,11.81,18.03,30.69,21.85,17.42,23.00,22.89,23.56,66.46,121.50,43.30,29.95,75.95,0.00,7.10,7.67,4.42,21.26,6.21,19.52,14.54,2.00,12.32,11.06,184.00,6.00,20.48,18.05,341.00,7.00,5.09,4.63,92.00,7.00,15.00,12.55,253.00,7.00,3.08,2.19,60.00,7.00,0,휴식 (Relax)
4.00,-5.50,3.19,10.31,0.25,14.85,25.60,83.70,91.21,16.91,10.61,52.22,16.00,3.60,53.11,121.30,158.64,30.45,9.11,68.38,0.00,18.51,16.34,11.55,20.81,36.43,16.34,20.81,17.00,13.78,34.49,77.34,110.55,33.09,22.47,69.52,11.00,3.97,7.39,8.20,17.20,6.47,15.54,13.97,4.00,12.33,11.00,192.00,7.00,19.45,17.19,341.00,7.00,5.11,4.61,87.00,7.00,14.27,11.77,242.00,7.00,2.68,1.84,56.00,5.00,0,휴식 (Relax)
10.50,26.12,-7.81,8.94,8.69,12.21,13.86,67.77,100.24,31.69,13.86,46.79,40.00,23.32,31.11,108.94,177.37,49.01,31.11,74.25,22.00,18.51,16.34,11.55,20.81,36.43,16.34,20.81,17.00,30.04,26.56,68.89,110.55,40.58,4.56,69.32,33.00,11.06,3.75,5.33,25.08,15.44,6.93,19.98,13.00,12.24,10.44,200.00,7.00,20.53,18.39,352.00,7.00,5.11,4.61,93.00,8.00,14.14,11.69,242.00,7.00,3.49,2.47,63.00,7.00,0,휴식 (Relax)
-21.00,13.06,-12.19,-13.06,-2.31,9.79,8.66,63.75,107.33,38.47,20.91,50.52,48.00,55.91,24.60,131.86,163.53,33.41,24.60,55.27,11.00,28.05,8.73,20.69,27.80,42.23,14.76,10.84,27.00,30.04,26.56,68.89,110.55,40.58,4.56,69.32,33.00,11.06,3.75,5.33,25.08,15.44,6.93,19.98,13.00,12.92,11.12,208.00,7.00,20.29,17.70,341.00,6.00,5.96,5.39,92.00,7.00,14.14,11.69,231.00,7.00,3.49,2.47,72.00,8.00,0,휴식 (Relax)
-11.50,-18.56,-1.81,-31.62,-5.00,29.68,16.34,39.88,120.00,47.53,25.08,34.03,24.00,38.00,7.89,112.67,184.39,53.88,46.00,42.82,33.00,34.00,3.24,22.04,24.60,36.59,18.86,16.70,21.00,52.96,28.44,35.35,128.28,62.71,59.56,41.15,22.00,6.88,8.31,6.01,29.73,19.46,10.15,15.03,8.00,12.95,11.62,216.00,7.00,20.84,18.99,363.00,7.00,5.90,5.34,102.00,7.00,15.50,12.72,242.00,7.00,3.72,2.62,75.00,3.00,0,휴식 (Relax)
-10.00,-46.50,14.50,-8.25,-1.88,53.62,35.69,40.80,101.82,24.92,2.54,55.05,48.00,60.97,58.73,139.02,176.28,51.97,38.19,100.16,32.00,25.01,14.22,30.99,34.79,38.07,29.83,26.62,10.00,74.73,46.67,55.57,110.00,44.46,46.67,53.87,0.00,6.34,10.10,7.99,29.12,17.87,10.10,16.75,10.00,12.81,11.75,208.00,7.00,23.76,21.25,395.00,7.00,6.90,5.94,108.00,7.00,15.31,12.72,253.00,7.00,3.76,2.77,72.00,6.00,0,휴식 (Relax)
13.50,8.19,13.12,33.69,0.50,46.53,33.45,32.82,107.63,26.81,5.74,63.05,56.00,71.75,66.41,149.69,165.30,41.38,27.19,89.21,21.00,25.20,33.46,50.14,34.79,16.40,22.37,18.07,32.00,43.86,47.33,42.24,132.46,63.30,65.53,85.38,33.00,9.81,13.49,11.14,23.41,17.12,6.79,13.81,4.00,13.18,12.19,200.00,7.00,23.37,20.56,405.00,7.00,7.44,6.03,103.00,7.00,17.60,14.52,264.00,7.00,3.41,2.44,63.00,5.00,0,휴식 (Relax)
18.50,26.75,1.75,8.94,3.00,41.59,72.64,44.53,83.52,21.19,44.93,26.50,8.00,21.26,84.15,151.06,177.34,66.03,41.22,48.33,34.00,29.98,36.59,50.49,29.15,20.62,18.14,15.95,26.00,36.99,89.44,83.87,108.34,30.45,21.69,42.45,11.00,3.07,15.59,15.91,22.00,10.45,4.11,16.38,4.00,12.24,11.12,176.00,6.00,23.51,20.47,405.00,7.00,7.39,5.78,108.00,6.00,15.66,13.06,242.00,6.00,3.30,2.25,61.00,2.00,0,휴식 (Relax)
-5.00,35.00,-13.25,-1.38,2.81,35.79,65.35,37.52,91.21,25.31,51.39,27.70,0.00,40.66,127.93,194.49,137.35,34.74,12.54,69.08,10.00,14.60,42.28,64.92,38.18,22.23,2.91,15.17,10.00,29.80,80.42,77.97,118.47,38.72,17.55,34.84,22.00,2.06,18.51,18.64,19.00,13.26,5.61,14.02,1.00,12.29,11.38,192.00,7.00,25.14,21.75,394.00,6.00,8.13,6.81,113.00,6.00,15.50,12.55,253.00,7.00,3.38,2.51,58.00,6.00,0,휴식 (Relax)
-4.00,2.69,-3.56,-11.00,-1.88,22.39,61.92,43.04,88.36,35.80,50.66,21.46,16.00,29.75,119.77,189.11,142.89,43.11,23.02,74.15,21.00,19.60,37.44,61.50,41.87,19.37,2.09,16.47,5.00,17.01,80.42,93.24,112.18,23.16,17.55,45.79,0.00,5.55,14.54,19.31,19.65,14.53,10.61,9.45,4.00,12.00,11.00,192.00,7.00,24.92,21.23,427.00,6.00,7.90,6.42,107.00,5.00,15.56,12.38,253.00,4.00,3.33,2.39,58.00,4.00,0,휴식 (Relax)
-18.00,-47.25,7.44,-10.31,-1.88,13.55,85.98,74.86,56.57,17.39,32.50,45.85,16.00,36.83,135.06,235.97,94.40,36.55,47.14,90.82,44.00,19.60,37.44,61.50,41.87,19.37,2.09,16.47,5.00,14.68,89.44,103.20,101.41,18.26,21.69,43.24,11.00,5.55,14.54,19.31,19.65,14.53,10.61,9.45,4.00,12.49,11.25,184.00,6.00,27.52,24.09,448.00,6.00,7.90,6.42,113.00,6.00,15.78,13.06,242.00,6.00,3.33,2.39,56.00,4.00,0,휴식 (Relax)
12.50,-4.94,7.12,0.00,-4.56,20.36,62.63,71.26,58.24,40.77,17.37,69.84,40.00,26.13,124.61,226.46,103.46,46.50,56.94,100.38,55.00,23.43,36.43,66.49,38.18,18.62,5.37,15.36,0.00,20.37,78.72,104.03,99.61,7.72,32.61,47.48,22.00,10.34,18.33,22.23,19.00,10.00,11.75,4.82,9.00,12.64,11.50,216.00,7.00,27.27,23.32,469.00,6.00,8.08,6.66,113.00,6.00,15.56,12.38,253.00,4.00,3.53,2.69,54.00,3.00,0,휴식 (Relax)
11.00,13.62,2.12,9.62,2.94,44.12,55.03,93.98,35.78,35.09,39.75,48.22,16.00,38.18,78.98,240.62,87.01,71.82,63.74,45.94,0.00,23.43,36.43,66.49,38.18,18.62,5.37,15.36,0.00,41.61,69.90,125.41,77.78,28.25,20.92,33.23,0.00,5.91,10.53,26.76,11.00,13.66,11.80,6.49,17.00,12.61,11.38,192.00,6.00,25.69,21.16,436.00,6.00,8.08,6.66,118.00,6.00,15.50,12.55,231.00,6.00,3.42,2.59,57.00,7.00,0,휴식 (Relax)
3.50,23.94,-3.50,10.31,-0.06,36.55,50.49,89.20,40.00,42.78,46.77,43.97,8.00,49.17,79.52,251.62,76.01,62.23,53.01,56.80,11.00,23.25,30.50,71.07,34.21,14.89,9.49,20.26,6.00,30.93,65.21,119.44,77.00,32.39,28.81,25.85,11.00,5.91,10.53,26.76,11.00,13.66,11.80,6.49,17.00,12.32,10.94,200.00,6.00,26.19,21.67,436.00,6.00,8.12,6.81,124.00,7.00,14.79,11.77,220.00,6.00,3.42,2.59,57.00,7.00,0,휴식 (Relax)
-3.50,3.31,-3.12,-10.31,0.12,27.21,35.18,98.78,28.84,35.58,44.29,48.14,24.00,29.56,63.70,243.65,78.85,69.27,35.94,76.52,33.00,26.61,25.86,76.38,29.70,12.19,3.91,14.34,0.00,19.47,46.00,133.79,55.00,48.70,7.89,45.79,11.00,4.59,10.07,26.77,8.00,13.92,14.65,3.54,14.00,11.99,10.50,200.00,7.00,25.46,20.64,447.00,6.00,8.13,6.88,113.00,6.00,14.79,11.77,231.00,7.00,3.33,2.39,54.00,3.00,0,휴식 (Relax)
-10.50,-37.25,12.50,0.69,-1.75,31.45,21.68,114.09,17.89,25.05,34.55,50.19,8.00,46.61,10.42,287.25,29.70,15.26,63.49,53.99,22.00,12.53,34.41,81.03,21.02,10.06,21.64,8.50,22.00,19.47,46.00,133.79,55.00,48.70,7.89,45.79,11.00,3.89,8.76,28.67,8.25,11.96,12.93,5.28,16.00,12.24,10.81,192.00,6.00,26.97,22.72,447.00,6.00,8.49,7.06,119.00,6.00,14.79,11.77,231.00,7.00,3.36,2.50,54.00,3.00,0,휴식 (Relax)
12.00,15.00,6.19,10.31,0.12,19.12,33.05,113.73,11.31,2.77,13.69,67.91,16.00,8.32,54.32,251.69,68.31,46.82,83.65,82.05,66.00,10.96,34.45,86.02,16.03,10.17,17.76,3.51,17.00,18.09,61.39,135.36,33.00,57.60,18.60,27.92,11.00,5.18,10.74,27.42,6.32,10.91,12.67,6.81,18.00,12.33,11.00,200.00,6.00,26.39,21.50,480.00,7.00,8.63,7.34,125.00,6.00,14.79,11.77,220.00,6.00,3.33,2.39,54.00,3.00,0,휴식 (Relax)
19.00,34.25,-4.44,20.62,5.75,18.94,37.73,129.09,11.31,14.05,29.67,52.41,0.00,39.73,90.36,267.50,68.95,37.38,96.70,41.03,22.00,14.81,38.60,83.67,17.46,16.14,18.65,3.32,11.00,22.80,63.72,146.07,34.79,46.89,17.20,33.36,0.00,11.04,15.91,30.89,10.00,8.40,9.74,6.12,12.00,13.23,12.00,200.00,6.00,27.77,22.34,469.00,6.00,8.70,7.56,125.00,6.00,15.50,12.55,231.00,6.00,3.65,2.84,51.00,6.00,0,휴식 (Relax)
-4.00,23.25,-9.44,-11.00,-1.56,24.42,44.84,119.98,25.30,23.87,42.77,36.54,16.00,39.73,90.36,267.50,68.95,37.38,96.70,41.03,22.00,14.81,38.60,83.67,17.46,16.14,18.65,3.32,11.00,26.90,76.52,134.59,15.56,48.99,37.49,44.65,22.00,2.69,15.85,20.67,9.43,3.66,5.54,15.88,1.00,12.96,11.50,192.00,6.00,27.77,22.34,469.00,6.00,8.70,7.56,125.00,6.00,15.56,12.38,242.00,3.00,2.89,2.31,48.00,3.00,0,휴식 (Relax)
-20.00,-48.69,5.25,-11.00,0.31,24.42,44.84,119.98,25.30,23.87,42.77,36.54,16.00,53.16,132.39,253.35,109.40,59.92,52.14,105.22,87.00,6.34,28.79,65.02,32.25,33.80,6.55,17.83,32.00,26.90,76.52,134.59,15.56,48.99,37.49,44.65,22.00,2.46,14.07,20.62,7.81,3.68,5.31,17.87,1.00,12.96,11.50,200.00,6.00,30.32,25.89,512.00,6.00,7.98,6.91,131.00,7.00,15.56,12.38,220.00,3.00,2.87,2.23,47.00,3.00,0,휴식 (Relax)
-12.00,-16.69,-5.75,-2.06,0.00,24.42,44.84,119.98,25.30,23.87,42.77,36.54,16.00,53.16,132.39,253.35,109.40,59.92,52.14,105.22,87.00,6.34,28.79,65.02,32.25,33.80,6.55,17.83,32.00,7.83,56.79,103.58,24.60,45.26,43.09,55.98,11.00,5.34,9.38,16.17,11.66,8.20,9.38,13.67,4.00,12.96,11.50,208.00,6.00,30.32,25.89,512.00,6.00,7.98,6.91,125.00,7.00,13.03,10.83,209.00,6.00,2.60,1.88,44.00,3.00,0,휴식 (Relax)
18.00,32.88,-9.38,7.56,5.50,11.09,50.84,119.16,46.65,27.67,15.21,42.52,48.00,34.95,104.68,194.30,186.68,114.27,42.51,83.82,0.00,17.16,8.21,43.95,52.50,47.18,16.63,14.84,10.00,27.08,67.78,106.06,39.66,23.69,22.08,38.64,11.00,12.15,10.06,10.84,17.20,6.98,3.28,18.92,4.00,13.42,12.00,216.00,6.00,28.87,23.25,513.00,7.00,7.82,6.88,130.00,7.00,12.73,10.74,176.00,6.00,2.92,2.31,48.00,7.00,0,휴식 (Relax)
-5.00,-0.12,2.31,8.94,2.31,6.23,35.69,103.90,56.57,42.99,2.54,56.49,64.00,34.95,104.68,194.30,186.68,114.27,42.51,83.82,0.00,28.05,2.93,37.33,50.25,37.66,9.67,7.87,21.00,16.12,46.00,84.49,55.00,19.97,7.89,20.78,33.00,14.52,12.97,12.98,15.65,3.99,3.13,17.69,1.00,13.23,11.62,232.00,7.00,28.87,23.25,524.00,7.00,7.13,6.19,130.00,8.00,10.45,9.20,154.00,6.00,2.97,2.48,48.00,6.00,0,휴식 (Relax)
-3.50,11.56,-8.00,-22.00,-5.19,28.19,16.34,89.91,75.47,45.78,25.08,32.52,40.00,26.52,93.69,183.52,197.03,117.41,48.33,74.61,11.00,38.05,13.61,44.81,39.32,37.06,10.71,16.80,10.00,42.07,26.94,70.80,79.32,13.04,26.94,52.23,0.00,12.13,7.55,6.98,23.09,7.64,7.55,19.75,7.00,12.32,10.38,208.00,6.00,28.47,22.77,524.00,6.00,7.40,6.50,125.00,8.00,11.67,9.62,176.00,3.00,3.21,2.51,56.00,7.00,0,휴식 (Relax)
-3.50,-48.00,6.69,-10.31,-1.88,28.19,16.34,89.91,75.47,45.78,25.08,32.52,40.00,81.63,74.48,187.84,187.30,30.97,39.56,160.59,76.00,26.95,16.37,27.46,42.15,20.95,22.23,37.80,11.00,53.07,34.49,80.02,73.79,13.74,22.47,41.51,11.00,14.79,10.50,10.78,22.09,4.82,7.33,16.31,2.00,12.32,10.38,208.00,6.00,29.81,25.38,556.00,7.00,6.82,6.19,131.00,9.00,11.97,10.40,176.00,6.00,3.16,2.39,54.00,3.00,0,휴식 (Relax)
-3.50,-14.62,11.62,20.62,-1.88,28.19,16.34,89.91,75.47,45.78,25.08,32.52,40.00,103.57,94.82,209.73,165.47,47.21,32.02,139.65,54.00,33.84,33.34,37.46,27.20,37.76,23.84,23.02,6.00,26.56,3.49,57.10,104.36,46.70,49.07,25.08,44.00,14.79,10.50,10.78,22.09,4.82,7.33,16.31,2.00,12.32,10.38,192.00,6.00,30.01,26.17,534.00,6.00,7.36,6.58,126.00,8.00,12.83,11.17,209.00,7.00,3.16,2.39,54.00,3.00,0,휴식 (Relax)
18.00,34.94,-9.38,8.25,2.81,43.74,24.23,93.74,64.00,33.58,30.81,38.52,0.00,46.20,40.50,185.46,196.92,91.56,111.25,94.38,33.00,21.42,25.37,23.92,38.83,44.90,39.35,20.80,22.00,30.40,23.56,71.88,99.61,43.91,29.95,26.34,22.00,9.81,8.08,12.95,22.20,2.78,2.95,21.27,7.00,12.17,10.75,184.00,6.00,28.93,24.42,546.00,7.00,7.61,6.88,148.00,9.00,12.60,11.00,209.00,7.00,3.21,2.51,56.00,7.00,0,휴식 (Relax)
-5.00,1.25,-3.69,-2.75,-0.50,28.77,15.00,77.80,80.00,22.70,36.21,53.33,16.00,50.22,49.10,195.40,187.86,93.73,102.18,92.74,22.00,12.90,32.28,29.38,33.84,51.50,30.85,16.81,11.00,30.40,23.56,71.88,99.61,43.91,29.95,26.34,22.00,5.19,11.47,17.84,17.26,2.22,5.70,16.54,2.00,11.96,10.25,208.00,7.00,28.84,23.72,557.00,6.00,7.48,6.65,148.00,9.00,12.60,11.00,209.00,7.00,2.92,2.31,51.00,7.00,0,휴식 (Relax)
-4.00,-29.00,2.31,-12.38,-0.31,12.82,27.15,71.68,81.58,38.63,42.70,37.38,0.00,32.83,9.99,165.85,216.37,137.45,104.84,82.10,22.00,12.90,32.28,29.38,33.84,51.50,30.85,16.81,11.00,10.32,29.95,76.65,99.61,34.91,23.56,38.88,44.00,7.36,8.50,17.43,18.03,4.29,7.05,14.54,1.00,11.66,9.50,200.00,7.00,29.63,25.62,579.00,7.00,7.48,6.65,148.00,9.00,12.83,11.17,220.00,7.00,2.84,2.09,48.00,6.00,0,휴식 (Relax)
-11.00,-4.94,-3.69,-11.00,-5.00,5.00,42.70,84.69,65.97,36.83,27.15,52.06,16.00,41.12,37.57,184.89,194.45,125.50,77.78,99.25,11.00,12.90,32.28,29.38,33.84,51.50,30.85,16.81,11.00,12.82,51.88,98.64,77.78,19.62,40.80,19.19,22.00,10.91,7.00,22.05,13.42,6.96,9.11,16.56,4.00,11.96,9.50,200.00,6.00,28.89,24.70,579.00,7.00,7.48,6.65,154.00,10.00,12.90,11.00,198.00,3.00,3.12,2.25,53.00,3.00,0,휴식 (Relax)
12.00,26.69,-3.69,9.62,5.62,11.46,36.21,72.20,71.55,52.36,15.00,64.83,32.00,40.81,21.71,163.99,212.19,143.70,55.85,119.18,33.00,12.90,32.28,29.38,33.84,51.50,30.85,16.81,11.00,14.42,38.26,91.96,83.77,2.43,62.13,6.42,0.00,9.16,4.92,18.54,16.97,12.53,15.09,18.53,10.00,12.33,10.50,216.00,7.00,29.66,25.90,568.00,7.00,7.48,6.65,137.00,9.00,12.83,11.17,209.00,7.00,3.44,2.77,62.00,7.00,0,휴식 (Relax)
-4.50,-8.38,7.69,8.94,-0.50,18.76,41.04,75.31,64.50,48.33,15.36,60.60,24.00,66.24,44.34,165.46,195.43,118.56,81.08,86.18,0.00,8.89,28.19,25.05,32.39,47.20,35.32,10.84,5.00,25.30,43.09,101.29,73.79,9.86,56.79,11.61,11.00,10.11,4.14,19.86,15.62,12.46,13.67,18.44,8.00,11.99,10.19,208.00,7.00,27.95,23.58,546.00,7.00,6.93,6.23,142.00,10.00,13.03,11.69,198.00,6.00,3.39,2.69,66.00,8.00,0,휴식 (Relax)
-3.50,3.31,-7.31,-22.00,-0.50,12.46,25.08,59.34,73.76,60.10,16.34,60.99,8.00,55.33,33.98,154.82,205.34,123.25,84.26,76.11,11.00,17.45,12.41,35.11,16.76,43.16,37.09,25.99,21.00,11.18,12.89,77.62,93.34,39.41,75.11,44.46,44.00,10.11,4.14,19.86,15.62,12.46,13.67,18.44,8.00,11.65,9.25,200.00,7.00,27.74,22.98,535.00,8.00,6.91,6.02,147.00,10.00,14.02,12.38,220.00,5.00,3.39,2.69,60.00,7.00,0,휴식 (Relax)
-9.50,-15.25,3.31,1.38,-2.00,39.88,20.42,57.84,53.67,36.27,38.77,52.04,40.00,13.73,52.39,128.75,188.73,68.63,118.23,120.16,44.00,11.54,17.84,29.92,16.03,37.50,42.56,31.13,27.00,32.87,9.11,90.53,79.32,41.46,53.11,24.91,22.00,2.78,12.09,21.21,12.17,9.22,9.47,13.91,16.00,10.67,7.44,184.00,6.00,26.40,21.88,546.00,9.00,6.93,6.15,153.00,11.00,12.83,11.17,209.00,7.00,3.12,2.25,54.00,3.00,0,휴식 (Relax)
13.50,18.44,7.31,21.31,2.69,24.08,4.88,42.13,68.35,47.16,54.04,48.30,56.00,21.28,63.30,137.30,177.90,71.98,107.27,113.48,33.00,5.10,28.44,36.39,1.00,49.85,28.44,24.35,11.00,9.73,27.33,60.38,108.34,74.45,37.83,29.67,11.00,7.62,9.55,16.21,17.12,13.92,5.89,11.01,21.00,11.21,8.75,192.00,7.00,25.78,21.19,503.00,9.00,6.91,6.19,142.00,10.00,13.73,11.77,231.00,7.00,3.16,2.43,57.00,7.00,0,휴식 (Relax)
4.00,24.69,-3.00,-11.69,-0.31,14.10,19.36,34.41,64.00,28.32,46.75,62.92,32.00,55.38,61.90,80.97,180.45,56.16,82.57,121.89,43.00,5.90,28.64,25.82,12.00,49.02,28.64,28.98,0.00,9.73,27.33,60.38,108.34,74.45,37.83,29.67,11.00,7.62,9.55,16.21,17.12,13.92,5.89,11.01,21.00,10.20,8.50,192.00,7.00,23.68,19.52,482.00,9.00,6.69,5.88,142.00,10.00,13.73,11.77,253.00,8.00,3.16,2.43,60.00,8.00,0,휴식 (Relax)
-12.00,1.31,-3.00,-0.69,-0.31,14.10,19.36,34.41,64.00,28.32,46.75,62.92,32.00,75.62,83.72,95.45,159.20,72.62,67.23,106.79,21.00,5.90,28.64,25.82,12.00,49.02,28.64,28.98,0.00,9.73,27.33,60.38,108.34,74.45,37.83,29.67,11.00,7.62,9.55,16.21,17.12,13.92,5.89,11.01,21.00,10.20,8.50,176.00,7.00,23.15,18.14,449.00,8.00,6.69,5.88,137.00,10.00,13.73,11.77,253.00,7.00,3.16,2.43,54.00,7.00,0,휴식 (Relax)
-10.00,-17.25,-3.31,-10.31,0.06,20.68,36.21,25.23,71.55,5.02,15.00,30.96,64.00,50.63,53.41,50.31,182.24,122.75,14.41,63.92,34.00,4.38,23.77,21.43,17.00,52.79,23.77,24.06,5.00,12.73,43.09,50.02,101.41,54.60,56.79,50.82,33.00,6.85,4.99,10.77,17.46,7.98,7.29,5.03,27.00,9.17,7.00,152.00,6.00,21.85,17.72,438.00,9.00,6.42,5.60,126.00,9.00,13.73,11.77,264.00,9.00,2.79,1.96,51.00,5.00,0,휴식 (Relax)
-2.00,-5.56,2.69,1.38,0.25,20.68,36.21,25.23,71.55,5.02,15.00,30.96,64.00,55.55,60.24,56.25,173.10,122.44,25.33,73.66,23.00,4.38,23.77,21.43,17.00,52.79,23.77,24.06,5.00,22.78,53.89,58.88,90.71,54.25,53.89,42.23,22.00,9.08,6.43,11.60,14.56,9.07,4.32,7.80,24.00,9.17,7.00,160.00,6.00,21.86,17.81,438.00,9.00,6.42,5.60,121.00,9.00,13.40,11.17,242.00,9.00,2.68,1.84,43.00,4.00,0,휴식 (Relax)
5.50,16.44,-3.62,10.31,-0.06,18.60,32.65,22.63,75.47,9.83,18.49,36.73,56.00,55.55,60.24,56.25,173.10,122.44,25.33,73.66,23.00,9.00,25.50,23.10,12.00,47.82,25.50,20.07,10.00,21.37,44.04,36.76,88.68,28.76,77.76,41.49,11.00,4.35,1.47,6.60,16.64,7.25,2.80,12.04,19.00,9.26,7.44,168.00,7.00,21.86,17.81,395.00,9.00,6.12,5.33,111.00,9.00,12.58,10.48,242.00,7.00,2.38,1.48,40.00,6.00,0,휴식 (Relax)
5.00,22.69,-7.62,-1.38,2.62,22.51,36.72,29.72,68.82,5.91,21.06,33.69,64.00,25.33,51.63,88.48,118.98,88.48,82.29,25.33,99.00,7.16,11.69,7.18,20.00,42.47,40.93,19.32,26.00,31.89,52.67,44.92,77.78,39.63,66.97,34.68,0.00,0.77,3.77,6.69,12.73,12.09,2.40,9.41,24.00,9.33,7.75,168.00,7.00,18.84,15.90,374.00,9.00,6.14,5.16,110.00,9.00,12.22,9.97,220.00,7.00,2.42,1.69,43.00,7.00,0,휴식 (Relax)
-10.50,9.62,-6.25,10.31,-0.50,15.98,28.84,24.55,73.76,13.68,28.84,35.48,72.00,52.41,84.47,118.55,93.34,61.50,55.03,26.73,66.00,29.02,10.32,21.60,18.87,26.54,25.49,16.34,4.00,21.09,41.91,35.86,80.08,43.80,61.72,26.58,11.00,2.55,5.54,8.69,11.40,11.11,2.30,9.52,22.00,9.68,8.12,160.00,7.00,18.19,15.30,330.00,6.00,5.15,4.22,88.00,8.00,11.32,9.11,220.00,8.00,2.35,1.62,41.00,7.00,0,휴식 (Relax)
-1.00,-49.94,8.75,-10.31,-2.19,10.59,16.00,42.89,57.69,20.51,16.00,26.45,48.00,62.25,59.57,144.96,69.26,39.96,101.34,98.87,21.00,16.18,11.67,16.29,33.53,11.06,33.64,24.63,12.00,13.27,35.67,47.18,59.24,59.99,57.67,47.19,11.00,3.31,5.87,8.24,8.06,14.95,7.18,9.68,17.00,7.94,6.38,144.00,6.00,20.75,16.95,362.00,9.00,5.39,4.69,99.00,9.00,11.32,9.11,231.00,9.00,2.32,1.43,40.00,6.00,0,휴식 (Relax)
-1.00,-16.56,-2.25,-19.94,-4.88,10.59,16.00,42.89,57.69,20.51,16.00,26.45,48.00,83.76,80.35,166.49,48.75,23.06,79.96,82.46,1.00,16.18,11.67,16.29,33.53,11.06,33.64,24.63,12.00,32.66,53.54,68.20,55.00,43.12,74.86,25.52,11.00,8.30,10.77,13.19,4.47,11.18,4.46,11.32,22.00,7.94,6.38,144.00,6.00,21.16,17.81,361.00,8.00,5.39,4.69,104.00,9.00,12.43,10.57,231.00,8.00,2.64,1.69,43.00,3.00,0,휴식 (Relax)
14.00,-6.94,8.44,22.00,2.94,17.02,0.00,49.90,50.60,28.18,0.00,39.32,64.00,62.42,61.93,163.54,61.52,39.53,71.71,77.41,23.00,17.44,15.37,19.82,28.79,15.80,37.44,25.48,17.00,3.20,23.96,71.36,22.00,64.79,107.36,19.51,44.00,5.60,8.55,12.03,2.24,12.80,6.70,13.87,25.00,8.72,7.50,152.00,7.00,20.00,16.44,350.00,8.00,5.73,5.08,109.00,9.00,13.47,11.00,275.00,5.00,2.75,1.84,46.00,7.00,0,휴식 (Relax)
5.00,13.69,-7.25,-11.00,-0.38,32.74,16.00,65.63,35.78,14.58,16.00,23.49,48.00,47.33,63.29,183.50,48.30,26.01,63.29,74.01,1.00,14.33,15.36,21.82,30.89,19.28,38.37,25.35,22.00,3.20,23.96,71.36,22.00,64.79,107.36,19.51,44.00,4.85,10.17,16.23,3.16,8.11,2.12,8.91,20.00,8.43,7.38,136.00,6.00,20.24,16.77,339.00,8.00,5.99,5.31,125.00,10.00,13.47,11.00,286.00,5.00,2.42,1.69,38.00,7.00,0,휴식 (Relax)
-9.50,4.06,-6.94,0.69,2.81,11.37,17.00,64.47,32.98,32.64,37.08,4.94,24.00,56.11,45.97,168.41,68.62,44.69,45.97,68.46,21.00,10.73,19.64,26.79,26.63,21.35,41.14,27.34,17.00,8.63,18.79,67.26,11.00,67.26,109.49,8.63,33.00,3.54,7.27,14.06,3.61,8.81,3.63,6.03,17.00,8.11,6.88,136.00,6.00,19.23,15.57,317.00,7.00,6.23,5.55,114.00,9.00,13.17,10.48,297.00,10.00,2.07,1.41,35.00,7.00,0,휴식 (Relax)
-16.50,-27.56,-1.25,-29.56,-2.06,16.20,32.98,80.06,17.89,23.68,32.98,13.83,40.00,64.33,23.97,179.43,65.00,32.70,67.97,81.25,1.00,5.63,30.30,31.72,22.36,10.58,30.30,20.05,28.00,51.30,29.52,104.82,45.35,23.72,75.25,52.52,77.00,3.16,5.58,15.02,5.39,6.81,1.69,7.63,19.00,9.15,7.62,144.00,6.00,20.43,17.12,339.00,7.00,5.78,4.84,103.00,8.00,14.92,12.12,297.00,10.00,2.14,1.47,40.00,8.00,0,휴식 (Relax)
-0.50,-4.88,4.06,-8.25,-4.75,16.20,32.98,80.06,17.89,23.68,32.98,13.83,40.00,66.91,17.66,190.25,54.00,25.36,60.60,71.46,10.00,12.77,25.89,38.63,11.70,14.49,21.99,13.06,39.00,41.91,26.62,97.08,44.00,19.31,64.27,62.72,88.00,5.12,7.01,19.96,5.83,9.82,5.91,6.23,14.00,9.15,7.62,152.00,6.00,20.42,17.12,339.00,6.00,5.65,4.92,98.00,8.00,14.29,11.34,297.00,9.00,2.46,1.84,41.00,3.00,0,휴식 (Relax)
6.50,4.75,4.06,13.06,2.94,1.04,37.08,89.84,8.00,11.62,17.00,15.51,24.00,71.98,22.02,186.74,58.31,5.52,66.84,49.68,32.00,12.77,25.89,38.63,11.70,14.49,21.99,13.06,39.00,37.20,34.84,102.22,55.00,11.53,72.94,55.12,77.00,4.97,2.14,19.26,10.44,9.57,9.46,9.63,9.00,9.04,7.69,136.00,6.00,20.04,16.34,317.00,6.00,5.65,4.92,93.00,8.00,14.66,11.95,297.00,10.00,2.54,1.84,44.00,8.00,0,휴식 (Relax)
7.00,15.75,4.38,3.44,2.94,7.83,29.56,82.34,16.00,17.86,12.25,22.81,16.00,71.98,22.02,186.74,58.31,5.52,66.84,49.68,32.00,8.20,21.05,39.01,7.21,15.19,18.47,17.78,34.00,41.67,13.67,80.50,59.24,10.58,79.67,52.94,55.00,4.97,2.14,19.26,10.44,9.57,9.46,9.63,9.00,8.43,7.12,128.00,6.00,20.04,16.34,317.00,6.00,5.27,4.53,82.00,7.00,13.31,10.74,275.00,9.00,2.54,1.84,41.00,7.00,0,휴식 (Relax)
-8.00,6.12,-6.31,2.75,5.56,23.11,16.00,83.52,22.63,11.10,16.00,6.88,32.00,52.43,41.00,170.25,69.66,16.67,47.99,68.80,10.00,6.54,16.85,43.87,6.08,10.22,23.45,12.83,39.00,42.23,20.20,83.51,49.19,18.55,76.71,59.01,44.00,10.86,5.48,23.93,5.00,5.57,8.00,15.57,3.00,8.49,7.00,128.00,3.00,18.88,15.14,306.00,6.00,5.50,4.77,93.00,8.00,13.19,10.31,264.00,8.00,2.91,2.30,44.00,7.00,0,휴식 (Relax)
-15.50,-14.50,4.31,-28.19,-7.00,30.19,17.89,91.34,17.89,3.74,17.89,14.30,24.00,30.99,61.78,179.42,54.41,20.77,55.41,56.23,32.00,6.94,18.62,40.69,1.00,8.91,28.27,8.30,45.00,36.85,37.05,110.26,45.35,35.65,52.36,89.23,11.00,4.47,3.00,26.25,10.77,11.67,6.56,21.97,4.00,9.15,7.62,136.00,6.00,19.18,15.75,306.00,6.00,5.60,5.02,104.00,9.00,15.05,12.29,286.00,8.00,3.43,2.62,57.00,4.00,0,휴식 (Relax)
22.50,16.44,3.94,4.12,-1.88,24.66,16.06,78.00,48.66,28.70,49.30,44.22,8.00,63.92,53.80,146.59,83.38,52.85,57.16,63.40,65.00,9.74,17.63,44.71,7.00,3.60,27.63,11.38,39.00,39.66,26.39,101.69,56.09,35.72,41.51,100.21,0.00,3.92,5.00,28.25,10.20,10.44,7.68,20.54,2.00,10.67,8.69,168.00,7.00,19.29,15.74,328.00,7.00,5.67,5.19,98.00,8.00,15.00,12.03,308.00,8.00,3.46,2.78,62.00,4.00,0,휴식 (Relax)
-1.50,4.75,-1.69,14.44,8.56,24.66,16.06,78.00,48.66,28.70,49.30,44.22,8.00,74.02,62.37,143.97,79.81,51.29,62.62,55.39,54.00,9.28,22.28,39.23,9.22,3.01,32.15,14.75,33.00,48.09,23.37,105.65,59.24,45.44,50.99,90.42,11.00,8.48,6.34,26.78,19.10,17.16,16.67,19.19,7.00,10.67,8.69,184.00,7.00,19.27,15.56,317.00,6.00,5.60,5.02,98.00,8.00,15.42,12.55,308.00,8.00,4.11,3.37,73.00,9.00,0,휴식 (Relax)
-8.50,5.44,3.94,4.12,-0.44,10.62,26.36,64.76,64.50,41.11,50.05,37.78,8.00,66.56,51.56,135.01,90.47,61.46,73.46,45.62,43.00,7.45,16.43,39.34,6.08,8.52,38.11,17.89,27.00,37.46,18.03,94.65,69.57,54.00,55.34,83.96,22.00,8.48,6.34,26.78,19.10,17.16,16.67,19.19,7.00,10.76,8.62,192.00,7.00,18.89,15.05,306.00,6.00,5.67,5.19,99.00,9.00,15.00,12.03,308.00,8.00,4.11,3.37,79.00,9.00,0,휴식 (Relax)
0.00,6.81,-7.06,-6.19,-2.12,4.49,34.26,67.33,64.00,34.96,43.57,37.30,0.00,63.76,43.48,116.63,88.01,49.21,57.09,67.48,65.00,7.45,16.43,39.34,6.08,8.52,38.11,17.89,27.00,26.53,10.19,91.31,73.79,57.41,59.38,86.64,11.00,8.30,5.57,23.52,24.08,19.05,17.23,15.73,2.00,10.58,8.00,184.00,3.00,17.60,14.02,295.00,6.00,5.67,5.19,110.00,10.00,15.05,12.29,308.00,9.00,4.09,3.28,78.00,8.00,0,휴식 (Relax)
-0.50,-2.81,3.25,-4.81,-2.00,11.65,30.12,59.33,72.00,38.60,35.62,35.41,8.00,75.72,59.26,123.70,66.01,37.52,59.78,46.92,43.00,8.24,22.00,31.65,13.42,5.85,38.47,20.20,16.00,13.48,12.75,109.69,55.00,35.42,39.13,91.17,33.00,9.66,7.39,24.61,24.00,17.06,15.54,17.49,4.00,10.38,7.69,176.00,6.00,17.00,13.34,241.00,6.00,5.44,4.91,105.00,10.00,14.54,11.69,286.00,8.00,4.12,3.38,76.00,5.00,0,휴식 (Relax)
7.00,4.81,3.56,15.81,2.69,19.62,33.71,56.68,72.44,30.75,40.98,40.01,0.00,37.16,10.19,69.72,85.91,16.74,59.38,41.31,11.00,7.64,17.01,29.48,16.28,5.67,35.84,21.27,11.00,21.79,19.05,93.19,70.43,34.33,19.05,106.97,55.00,5.26,3.48,19.76,29.00,16.50,10.67,22.48,9.00,10.54,8.25,184.00,7.00,12.28,10.14,220.00,7.00,5.09,4.63,94.00,9.00,15.05,12.29,297.00,9.00,4.15,3.48,78.00,9.00,0,휴식 (Relax)
6.50,13.75,3.19,13.75,-0.62,27.01,41.57,63.17,64.50,33.09,41.57,33.13,8.00,27.97,37.49,65.88,64.14,33.19,76.52,23.50,22.00,6.55,21.75,35.48,12.53,4.60,30.15,21.75,5.00,48.15,51.88,110.45,56.09,4.22,40.80,76.11,22.00,1.54,6.77,19.82,29.43,11.94,13.79,17.84,4.00,10.67,8.69,168.00,6.00,11.99,9.28,220.00,7.00,5.11,4.61,83.00,8.00,14.81,11.69,253.00,8.00,3.92,3.20,73.00,9.00,0,휴식 (Relax)
7.00,12.38,-6.81,4.12,-0.44,21.68,35.34,56.70,65.97,28.16,48.32,25.34,16.00,33.38,57.59,87.32,46.67,20.92,54.54,38.36,0.00,18.04,24.07,32.62,7.81,13.47,17.05,24.68,11.00,36.17,40.80,89.60,77.78,17.82,51.88,54.13,0.00,3.88,3.96,16.93,32.39,9.79,14.22,15.95,1.00,10.15,8.12,160.00,6.00,12.22,8.94,198.00,6.00,4.98,4.71,78.00,8.00,13.40,10.66,231.00,7.00,3.87,3.05,70.00,8.00,0,휴식 (Relax)
-15.50,-28.88,-6.81,-17.19,-2.31,28.86,41.94,67.36,43.08,51.98,25.94,49.23,8.00,49.77,55.08,72.74,34.79,62.49,36.36,81.97,44.00,18.04,24.07,32.62,7.81,13.47,17.05,24.68,11.00,38.39,46.89,89.93,77.00,17.32,53.70,64.62,11.00,5.88,3.83,15.73,32.76,9.04,15.34,16.50,3.00,10.76,8.62,168.00,6.00,13.95,11.17,231.00,7.00,4.98,4.71,78.00,8.00,14.01,11.52,242.00,7.00,3.92,3.14,69.00,7.00,0,휴식 (Relax)
0.00,-16.50,8.19,4.81,-0.12,21.86,34.17,59.61,46.65,54.91,24.99,56.52,16.00,70.97,75.58,93.01,15.56,53.69,24.07,61.31,22.00,7.32,12.47,25.04,21.84,28.47,11.77,32.75,5.00,38.39,46.89,89.93,77.00,17.32,53.70,64.62,11.00,8.72,6.55,17.57,29.83,12.03,12.38,16.93,0.00,10.58,8.00,176.00,3.00,14.55,12.38,209.00,6.00,5.11,4.61,89.00,9.00,14.01,11.52,231.00,7.00,3.85,2.92,66.00,6.00,0,휴식 (Relax)
6.50,3.44,2.81,-7.56,-2.12,4.94,17.89,61.37,28.84,73.20,17.89,43.12,8.00,38.81,48.56,74.73,45.35,82.76,17.44,45.06,11.00,10.85,15.59,30.12,21.00,25.40,15.59,27.39,1.00,20.71,33.00,77.71,80.08,20.29,33.00,57.31,11.00,8.72,6.55,17.57,29.83,12.03,12.38,16.93,0.00,9.89,7.69,168.00,7.00,12.73,10.23,209.00,7.00,5.11,4.49,88.00,8.00,12.12,9.80,220.00,8.00,3.85,2.92,65.00,6.00,0,휴식 (Relax)
13.50,2.75,2.81,13.06,5.19,17.44,28.84,77.28,17.89,60.53,28.84,45.73,8.00,31.22,49.79,82.74,44.00,75.43,20.62,44.47,0.00,10.85,15.59,30.12,21.00,25.40,15.59,27.39,1.00,10.96,45.35,93.46,59.24,7.30,45.35,56.50,11.00,10.12,10.82,20.17,19.31,20.89,17.91,9.50,11.00,10.48,8.50,168.00,6.00,12.60,9.62,198.00,6.00,5.11,4.49,88.00,8.00,12.43,9.71,220.00,8.00,3.86,3.14,65.00,6.00,0,휴식 (Relax)
-17.00,13.06,-7.50,-7.56,-2.50,15.08,7.10,69.32,11.31,72.21,52.59,50.52,32.00,30.45,59.38,92.68,33.00,70.80,10.19,49.08,11.00,1.01,10.32,34.81,23.71,15.51,11.73,38.09,10.00,24.78,23.37,74.78,70.43,29.30,50.99,55.67,33.00,6.04,5.97,15.22,21.63,24.86,18.77,7.05,16.00,11.27,9.12,200.00,7.00,13.03,9.97,198.00,6.00,5.42,5.00,99.00,9.00,12.12,9.80,231.00,9.00,3.87,3.06,73.00,7.00,0,휴식 (Relax)
-0.50,-17.88,3.50,-6.88,-0.31,22.63,11.40,76.18,8.00,64.53,47.98,50.76,24.00,32.38,29.95,99.09,46.67,37.83,23.56,78.07,44.00,1.01,10.32,34.81,23.71,15.51,11.73,38.09,10.00,35.77,18.03,78.10,62.23,27.10,55.34,59.18,22.00,3.55,5.35,14.84,19.21,25.62,20.33,9.11,13.00,11.12,8.62,200.00,6.00,13.40,11.17,220.00,7.00,5.42,5.00,99.00,9.00,12.22,10.14,231.00,9.00,3.82,2.84,72.00,7.00,0,휴식 (Relax)
-8.50,-16.50,-2.81,-16.50,-1.81,22.63,11.40,76.18,8.00,64.53,47.98,50.76,24.00,42.76,35.20,121.08,34.79,51.30,14.58,56.07,22.00,4.20,5.34,34.18,26.40,10.65,6.74,35.56,5.00,56.95,34.79,100.10,49.19,10.92,34.79,45.88,44.00,4.93,12.53,22.37,15.52,17.66,12.53,2.71,21.00,11.12,8.62,200.00,6.00,14.02,12.38,198.00,6.00,5.11,4.61,94.00,9.00,12.90,11.00,209.00,8.00,3.56,2.44,61.00,4.00,0,휴식 (Relax)
13.50,14.44,7.88,34.38,5.38,16.54,26.53,90.18,32.98,39.17,26.53,32.67,56.00,44.34,7.89,111.84,66.91,51.06,46.00,28.78,11.00,8.89,3.33,38.76,22.63,14.33,10.63,36.30,10.00,37.82,34.79,95.66,31.11,55.16,34.79,43.18,110.00,9.67,6.32,17.59,4.47,16.01,6.32,11.52,34.00,10.85,8.81,184.00,6.00,13.87,11.60,198.00,6.00,5.44,4.84,105.00,10.00,13.95,11.17,231.00,8.00,3.39,2.69,64.00,7.00,0,휴식 (Relax)
6.50,35.06,-12.12,1.38,-0.75,5.56,13.86,74.68,40.00,24.37,13.86,26.64,72.00,62.31,16.21,131.22,66.91,69.20,30.78,41.20,11.00,10.28,13.29,29.73,35.78,18.98,21.43,37.02,26.00,37.82,34.79,95.66,31.11,55.16,34.79,43.18,110.00,11.67,8.16,19.42,2.83,14.03,4.62,9.91,32.00,9.47,7.69,168.00,5.00,16.14,12.46,209.00,6.00,6.23,5.61,120.00,10.00,13.95,11.17,253.00,8.00,3.33,2.62,59.00,7.00,0,휴식 (Relax)
6.00,2.06,-2.12,12.38,2.62,11.08,14.78,76.03,33.94,26.45,6.12,23.77,80.00,62.31,16.21,131.22,66.91,69.20,30.78,41.20,11.00,10.28,13.29,29.73,35.78,18.98,21.43,37.02,26.00,37.82,34.79,95.66,31.11,55.16,34.79,43.18,110.00,6.78,3.70,15.73,4.47,12.18,1.53,8.85,26.00,9.59,8.00,160.00,5.00,16.14,12.46,242.00,6.00,6.23,5.61,124.00,9.00,13.95,11.17,253.00,8.00,2.64,2.06,53.00,7.00,0,휴식 (Relax)
-17.50,-39.19,8.56,-19.25,-2.25,3.23,19.31,82.70,28.84,34.44,3.31,20.30,88.00,23.48,50.99,151.46,85.91,91.73,23.37,58.52,33.00,5.57,14.80,25.19,40.31,23.97,24.22,39.75,21.00,16.34,48.77,110.70,22.00,36.15,31.77,40.73,132.00,6.40,4.83,17.03,4.00,10.44,0.83,8.00,28.00,10.28,8.50,176.00,6.00,19.04,15.64,286.00,7.00,6.54,5.88,124.00,9.00,14.81,12.38,275.00,8.00,2.70,2.12,56.00,8.00,0,휴식 (Relax)
13.50,4.81,7.56,12.38,-5.06,19.23,3.31,70.29,43.08,43.00,19.31,16.27,104.00,23.48,50.99,151.46,85.91,91.73,23.37,58.52,33.00,13.09,30.43,30.88,37.00,23.69,8.48,27.38,37.00,35.90,26.94,91.23,44.00,47.08,26.94,41.51,154.00,7.96,7.83,19.87,1.00,13.01,2.17,10.23,25.00,10.85,9.19,208.00,7.00,19.04,15.64,319.00,7.00,6.55,5.70,113.00,8.00,15.00,12.55,308.00,9.00,2.95,2.22,59.00,8.00,0,휴식 (Relax)
20.00,14.44,2.56,21.31,5.44,42.39,21.78,81.87,40.79,57.60,17.13,31.35,80.00,31.46,48.98,149.25,101.41,93.79,41.41,36.52,11.00,13.09,30.43,30.88,37.00,23.69,8.48,27.38,37.00,64.73,28.08,101.41,55.00,19.55,53.31,55.25,121.00,3.65,6.06,20.77,8.06,14.67,9.66,18.11,17.00,12.00,10.00,208.00,6.00,19.34,15.73,319.00,6.00,6.55,5.70,118.00,8.00,15.78,13.15,297.00,8.00,3.22,2.65,65.00,8.00,0,휴식 (Relax)
4.00,24.06,-7.75,0.00,-0.38,42.39,21.78,81.87,40.79,57.60,17.13,31.35,80.00,43.95,67.78,169.57,88.68,72.26,22.08,57.42,33.00,5.81,30.78,31.05,38.60,21.24,15.77,38.36,26.00,57.24,17.20,90.45,64.14,27.06,63.72,65.32,110.00,5.06,3.43,17.78,8.94,12.97,11.67,21.02,14.00,12.00,10.00,224.00,6.00,20.29,16.59,319.00,6.00,6.81,6.16,129.00,9.00,15.56,12.38,319.00,5.00,3.16,2.44,68.00,8.00,0,휴식 (Relax)
-3.50,-17.88,-2.38,-19.94,-0.38,38.38,22.38,81.08,43.08,58.52,11.79,23.68,88.00,42.37,38.11,148.77,118.47,59.21,38.11,86.11,66.00,9.37,35.97,36.95,32.89,15.79,15.44,32.77,32.00,57.39,21.12,86.54,85.91,16.48,56.43,32.33,143.00,5.06,3.43,17.78,8.94,12.97,11.67,21.02,14.00,11.99,10.06,232.00,7.00,20.53,17.53,363.00,7.00,6.79,6.12,123.00,8.00,16.14,13.32,330.00,9.00,3.16,2.44,68.00,8.00,0,휴식 (Relax)
-25.50,-26.12,2.94,2.06,-6.94,48.86,52.55,110.84,17.89,28.01,30.84,52.13,56.00,79.03,53.11,176.74,110.00,31.79,9.11,64.02,22.00,3.00,25.67,32.47,38.01,9.91,25.12,26.28,43.00,57.39,21.12,86.54,85.91,16.48,56.43,32.33,143.00,12.06,5.51,22.87,8.54,12.97,8.70,25.45,7.00,13.63,11.50,232.00,6.00,21.26,18.73,330.00,6.00,6.56,5.80,129.00,9.00,16.14,13.32,330.00,9.00,3.63,2.70,73.00,6.00,0,휴식 (Relax)
28.44,25.44,-3.38,21.31,5.56,24.66,28.67,87.14,65.49,33.77,67.50,95.03,7.00,24.05,1.89,127.79,165.00,24.55,64.11,90.23,33.00,6.55,24.39,36.54,34.06,6.15,20.62,27.13,38.00,27.78,39.13,66.55,122.98,44.31,12.75,70.26,99.00,5.56,3.11,16.49,16.28,20.93,5.68,29.52,1.00,14.81,11.99,273.00,7.00,21.20,18.05,374.00,7.00,6.28,5.45,119.00,9.00,16.25,13.23,330.00,9.00,3.87,3.10,84.00,9.00,0,휴식 (Relax)
-4.56,22.69,-12.06,-0.69,5.19,24.66,28.67,87.14,65.49,33.77,67.50,95.03,7.00,22.88,45.35,142.05,170.77,47.22,45.35,52.15,11.00,17.37,20.92,22.58,50.25,15.07,24.99,32.08,17.00,27.78,39.13,66.55,122.98,44.31,12.75,70.26,99.00,7.27,9.04,19.57,18.36,19.00,10.21,28.55,5.00,14.81,11.99,298.00,7.00,21.47,17.45,352.00,6.00,6.73,5.81,124.00,9.00,16.25,13.23,341.00,10.00,4.10,3.52,82.00,9.00,0,휴식 (Relax)
-19.06,0.69,-6.38,-1.38,-0.94,42.16,6.37,67.28,89.36,45.14,80.56,87.90,31.00,22.88,45.35,142.05,170.77,47.22,45.35,52.15,11.00,28.33,18.86,31.20,45.54,13.93,14.15,31.96,28.00,19.22,45.45,75.93,113.25,41.18,18.83,75.64,88.00,9.12,10.43,21.49,16.64,17.35,8.32,27.96,3.00,15.58,13.06,306.00,7.00,21.47,17.45,374.00,6.00,6.85,5.92,129.00,9.00,15.98,12.72,319.00,9.00,4.04,3.42,80.00,9.00,0,휴식 (Relax)
-9.56,-40.56,9.31,-21.31,-7.12,66.02,25.12,77.77,90.43,24.12,56.66,85.93,7.00,24.93,64.11,135.54,187.00,71.92,1.89,96.08,33.00,23.95,22.38,27.31,50.29,18.92,10.25,34.85,33.00,50.99,58.03,86.29,101.41,11.77,51.80,87.88,55.00,3.91,16.20,23.58,26.08,9.14,12.22,22.48,10.00,15.41,12.76,282.00,6.00,23.89,20.80,407.00,7.00,7.17,6.27,134.00,9.00,16.71,13.23,319.00,6.00,4.24,3.30,79.00,8.00,0,휴식 (Relax)
4.94,4.12,3.62,20.62,-0.25,43.72,12.90,54.48,114.13,38.94,40.74,81.24,17.00,35.93,75.11,145.80,177.37,62.42,12.89,86.23,22.00,19.62,33.36,32.68,48.17,17.07,14.80,25.76,22.00,20.26,25.50,53.65,133.82,21.81,78.27,98.93,22.00,2.09,14.21,21.58,27.20,10.85,14.21,21.45,12.00,14.79,12.06,282.00,7.00,23.62,20.28,418.00,7.00,7.02,6.12,128.00,8.00,17.34,14.09,363.00,9.00,4.21,3.22,84.00,8.00,0,휴식 (Relax)
11.94,23.38,-6.69,-2.06,2.56,35.47,27.60,55.24,117.44,26.62,39.70,89.32,1.00,17.69,53.89,120.33,202.83,82.47,53.89,67.39,22.00,20.13,27.26,22.28,59.14,27.87,18.63,15.68,11.00,17.02,16.94,52.51,132.46,18.83,75.91,98.32,33.00,2.55,12.53,20.78,29.68,8.73,12.53,23.86,9.00,15.09,12.55,282.00,7.00,23.93,19.77,440.00,7.00,7.17,6.27,133.00,8.00,17.05,13.58,374.00,10.00,4.26,3.42,85.00,9.00,0,휴식 (Relax)
-4.56,-10.31,-1.69,-3.44,-2.44,36.63,34.78,63.10,109.77,24.04,44.99,82.70,9.00,27.80,60.91,127.72,194.61,72.19,48.38,65.75,11.00,20.13,27.26,22.28,59.14,27.87,18.63,15.68,11.00,32.56,28.81,73.32,110.55,8.55,65.21,92.17,11.00,2.55,12.53,20.78,29.68,8.73,12.53,23.86,9.00,14.81,11.99,274.00,7.00,23.49,18.82,440.00,7.00,7.17,6.27,127.00,7.00,15.90,12.55,319.00,9.00,4.26,3.42,82.00,9.00,0,휴식 (Relax)
-11.06,-29.56,4.62,-22.00,-1.94,29.28,34.09,54.13,119.00,5.25,68.99,59.57,33.00,16.41,16.94,88.29,226.77,84.37,75.91,60.77,33.00,18.46,31.87,26.99,54.15,25.23,14.97,10.90,6.00,22.93,26.94,58.23,118.47,50.59,26.94,78.16,44.00,5.45,6.71,14.78,36.67,1.22,6.71,16.07,17.00,14.79,12.06,274.00,7.00,24.51,20.80,440.00,7.00,6.85,5.92,112.00,7.00,15.06,11.00,308.00,3.00,4.04,3.08,76.00,7.00,0,휴식 (Relax)
-2.56,-15.12,8.31,0.00,-4.62,27.76,41.42,61.00,112.00,12.86,63.61,67.55,25.00,70.95,43.53,111.54,196.77,31.13,22.92,87.70,22.00,35.00,15.36,20.85,56.61,4.63,6.16,15.07,15.00,22.93,26.94,58.23,118.47,50.59,26.94,78.16,44.00,10.27,2.52,17.72,34.79,4.43,11.56,20.23,12.00,14.75,11.88,282.00,7.00,22.97,20.11,418.00,7.00,6.55,5.81,107.00,7.00,15.06,11.00,319.00,3.00,4.21,3.42,76.00,7.00,0,휴식 (Relax)
20.44,17.19,2.94,21.31,3.38,37.52,27.54,49.50,120.80,25.49,67.02,82.22,9.00,61.26,34.49,101.02,206.67,33.31,22.47,98.06,33.00,40.99,17.73,26.73,50.92,7.31,5.62,9.15,9.00,18.73,27.33,52.58,122.98,59.74,37.83,85.74,33.00,10.27,2.52,17.72,34.79,4.43,11.56,20.23,12.00,15.60,13.01,282.00,7.00,23.32,20.71,407.00,7.00,6.56,5.80,101.00,6.00,15.78,11.95,308.00,7.00,4.21,3.42,79.00,7.00,0,휴식 (Relax)
2.94,13.75,3.25,8.25,3.06,60.68,34.00,64.27,102.53,35.71,46.63,66.96,33.00,52.20,62.13,111.12,189.89,21.73,38.26,43.37,22.00,36.33,12.90,24.42,52.80,7.58,10.47,4.33,4.00,41.94,58.10,78.48,94.63,38.76,31.31,56.25,66.00,8.57,7.25,18.22,33.54,9.07,11.72,19.50,17.00,14.78,12.06,266.00,6.00,21.48,18.56,363.00,6.00,6.29,5.53,101.00,6.00,14.81,11.69,286.00,6.00,4.26,3.45,76.00,7.00,0,휴식 (Relax)
-4.06,13.06,-6.75,-2.06,-2.12,45.05,18.32,50.15,114.34,50.90,30.76,66.24,49.00,60.22,72.94,122.11,179.07,20.71,34.84,53.05,11.00,27.45,7.55,37.48,38.83,22.02,9.54,19.30,20.00,30.96,48.98,70.07,101.41,47.18,41.41,45.50,77.00,9.91,9.27,21.19,30.59,7.63,9.27,18.62,14.00,14.55,11.57,266.00,7.00,21.73,19.08,352.00,6.00,6.17,5.50,107.00,7.00,14.66,11.09,286.00,7.00,4.11,3.28,70.00,7.00,0,휴식 (Relax)
4.94,-28.19,8.94,-11.00,-4.44,33.66,8.97,55.12,104.85,51.40,42.16,60.72,33.00,22.21,59.59,114.59,176.34,64.37,70.14,88.79,33.00,27.74,2.68,33.81,41.87,25.32,14.52,23.71,25.00,10.40,55.34,87.25,79.32,25.97,18.03,78.26,44.00,6.01,13.80,18.34,30.41,17.45,1.91,15.20,3.00,13.66,10.45,258.00,8.00,22.67,20.54,385.00,7.00,6.49,5.81,112.00,7.00,14.02,9.62,275.00,1.00,3.98,3.26,67.00,7.00,0,휴식 (Relax)
4.94,6.19,3.25,20.62,3.38,33.66,8.97,55.12,104.85,51.40,42.16,60.72,33.00,11.35,77.11,135.29,154.39,57.98,50.24,76.12,11.00,27.27,8.60,39.43,34.21,31.13,11.05,18.23,14.00,16.76,34.79,66.78,98.39,45.36,34.79,98.28,22.00,6.53,10.80,15.58,33.38,19.49,4.83,14.38,0.00,13.66,10.45,250.00,7.00,21.64,19.34,374.00,7.00,6.29,5.53,112.00,7.00,15.00,11.52,286.00,7.00,4.08,3.42,75.00,8.00,0,휴식 (Relax)
4.44,4.81,-2.75,7.56,0.38,33.43,0.97,53.09,100.72,47.36,47.34,67.66,41.00,26.23,55.90,122.10,157.50,77.93,49.40,76.94,11.00,27.27,8.60,39.43,34.21,31.13,11.05,18.23,14.00,45.69,11.00,75.64,88.68,33.11,11.00,78.10,55.00,6.53,10.80,15.58,33.38,19.49,4.83,14.38,0.00,13.69,10.56,226.00,7.00,21.29,18.39,363.00,7.00,6.29,5.53,112.00,7.00,13.87,11.17,275.00,7.00,4.08,3.42,71.00,7.00,0,휴식 (Relax)
2.44,2.75,-7.06,-13.75,5.56,38.81,31.34,81.79,74.41,35.60,15.35,35.95,9.00,59.21,50.49,143.47,125.42,60.03,28.96,65.21,22.00,34.88,13.11,39.61,28.79,32.27,1.47,16.03,25.00,37.74,8.42,64.70,99.61,43.65,20.33,77.69,66.00,19.22,17.44,23.41,20.62,6.50,13.19,8.25,13.00,11.71,8.87,169.00,6.00,20.02,16.16,308.00,6.00,6.49,5.81,111.00,6.00,14.29,11.69,275.00,7.00,3.97,3.37,64.00,8.00,0,휴식 (Relax)
-26.00,-16.50,-11.44,-22.00,-1.94,61.83,40.60,59.59,56.57,28.30,46.81,23.00,48.00,24.20,29.95,104.42,143.42,97.00,23.56,57.45,66.00,44.54,23.09,49.38,19.72,22.37,8.98,20.99,15.00,48.15,41.51,67.50,104.36,39.18,26.39,71.71,22.00,11.70,9.54,16.84,23.85,7.76,17.97,9.97,21.00,11.49,9.00,168.00,6.00,19.45,16.50,330.00,7.00,7.11,6.44,106.00,6.00,14.55,11.00,264.00,3.00,3.73,3.07,72.00,7.00,0,휴식 (Relax)
-2.00,-3.44,-2.06,-20.62,-6.12,61.83,40.60,59.59,56.57,28.30,46.81,23.00,48.00,39.18,27.33,114.90,116.93,76.06,37.83,71.63,33.00,34.72,17.92,44.67,17.00,19.04,17.11,30.34,5.00,68.65,56.87,89.50,83.77,17.33,12.41,79.60,44.00,10.15,11.26,24.45,14.76,6.18,21.66,14.32,8.00,11.49,9.00,176.00,6.00,18.12,15.38,319.00,7.00,6.49,5.81,111.00,6.00,15.50,12.72,264.00,7.00,3.74,3.12,71.00,7.00,0,휴식 (Relax)
19.50,-13.06,19.19,22.00,3.69,22.70,38.93,42.84,73.76,67.77,54.44,21.94,8.00,60.66,30.78,136.85,103.77,65.17,16.21,53.55,55.00,19.74,39.46,67.42,11.00,14.40,27.15,3.64,33.00,46.77,58.10,83.69,94.63,24.95,31.31,97.70,66.00,7.95,8.26,21.82,17.46,8.61,24.61,17.17,5.00,11.65,8.94,192.00,7.00,18.33,15.81,286.00,6.00,7.96,6.46,118.00,6.00,16.50,13.75,286.00,4.00,3.85,3.31,74.00,7.00,0,휴식 (Relax)
2.50,16.50,-7.81,-1.38,3.06,15.31,54.44,57.79,62.48,61.74,38.93,6.19,24.00,13.86,69.48,129.70,64.14,10.22,49.32,17.50,110.00,20.51,25.20,56.01,19.42,18.29,43.02,15.48,49.00,29.72,77.81,103.23,77.78,10.46,15.39,76.00,44.00,4.67,7.05,25.24,16.28,13.99,17.44,7.29,15.00,11.21,8.12,192.00,6.00,16.50,14.44,275.00,6.00,8.00,6.56,141.00,7.00,15.50,12.72,264.00,7.00,3.58,3.07,67.00,6.00,0,휴식 (Relax)
-12.50,15.81,-7.12,10.31,5.69,18.06,41.94,48.97,75.47,75.02,25.94,9.82,40.00,18.41,79.93,140.20,55.00,18.24,39.97,22.01,99.00,23.85,25.55,61.86,27.20,25.21,37.03,4.96,38.00,34.47,67.78,95.49,85.91,20.91,22.08,65.27,33.00,8.58,13.00,31.19,10.44,9.28,17.46,12.63,9.00,11.65,8.94,200.00,7.00,16.94,15.04,253.00,6.00,8.17,6.77,130.00,6.00,14.79,11.86,253.00,7.00,3.87,3.44,67.00,8.00,0,휴식 (Relax)
-18.50,-4.12,-7.12,-31.62,-2.00,40.49,52.75,74.17,64.50,53.15,41.19,23.05,8.00,18.36,70.70,122.09,44.00,35.71,47.55,53.29,66.00,23.85,25.55,61.86,27.20,25.21,37.03,4.96,38.00,52.33,65.05,113.49,69.57,27.03,11.16,93.91,66.00,6.94,9.70,30.24,12.81,12.33,15.16,16.65,4.00,12.24,9.50,192.00,6.00,15.50,13.75,242.00,6.00,8.17,6.77,125.00,6.00,16.90,14.09,297.00,7.00,3.84,3.38,70.00,6.00,0,휴식 (Relax)
-2.50,6.19,-2.12,1.38,-2.00,40.49,52.75,74.17,64.50,53.15,41.19,23.05,8.00,13.84,63.98,115.26,55.00,35.88,58.38,64.13,55.00,23.85,25.55,61.86,27.20,25.21,37.03,4.96,38.00,52.33,65.05,113.49,69.57,27.03,11.16,93.91,66.00,6.94,9.70,30.24,12.81,12.33,15.16,16.65,4.00,12.24,9.50,200.00,6.00,15.54,13.84,231.00,7.00,8.17,6.77,124.00,5.00,16.90,14.09,308.00,7.00,3.84,3.38,70.00,6.00,0,휴식 (Relax)
12.00,4.12,8.56,10.31,2.69,39.61,36.69,83.79,65.97,30.33,59.31,14.74,32.00,39.51,32.23,83.59,64.14,66.18,37.16,39.91,88.00,27.13,23.40,66.20,24.60,20.51,41.79,7.52,33.00,59.47,33.00,115.60,66.91,44.72,33.00,87.86,33.00,4.94,6.00,26.52,16.40,13.51,19.95,16.18,9.00,12.33,9.50,208.00,7.00,13.95,12.03,220.00,7.00,8.40,7.12,130.00,6.00,16.25,13.15,297.00,9.00,3.87,3.44,72.00,9.00,0,휴식 (Relax)
-11.50,2.75,3.88,-11.00,-0.62,35.27,35.37,75.90,73.76,31.58,67.15,21.12,40.00,61.49,14.58,85.21,46.67,54.95,35.20,48.93,66.00,22.59,21.77,62.38,29.15,17.36,44.39,12.36,28.00,51.36,39.02,104.81,77.78,54.48,43.19,92.62,22.00,5.63,1.48,28.84,13.93,8.51,17.94,14.70,4.00,12.64,10.06,208.00,7.00,13.19,10.66,187.00,6.00,8.17,6.77,130.00,6.00,16.50,13.75,297.00,5.00,3.62,3.12,67.00,9.00,0,휴식 (Relax)
-9.50,3.44,-11.12,-8.94,-0.44,23.15,24.27,75.64,86.53,3.49,55.89,11.40,8.00,51.67,16.21,74.44,55.00,63.36,30.78,52.71,55.00,6.77,11.83,69.30,27.46,15.56,49.96,4.60,44.00,25.08,48.98,90.47,88.68,64.74,41.41,70.02,55.00,5.78,4.47,25.88,16.76,8.01,19.55,13.43,1.00,11.74,9.50,192.00,7.00,12.73,10.23,187.00,6.00,8.60,7.03,146.00,7.00,15.66,13.32,286.00,7.00,3.57,2.99,67.00,9.00,0,휴식 (Relax)
-23.50,-46.50,4.88,-28.19,-4.94,36.03,28.30,107.25,62.48,34.99,43.44,23.82,40.00,52.53,62.41,65.02,54.41,33.96,92.87,81.27,120.00,6.77,11.83,69.30,27.46,15.56,49.96,4.60,44.00,27.02,61.39,127.65,55.00,22.84,18.60,109.45,11.00,12.55,11.70,25.49,16.28,3.01,11.70,19.70,9.00,13.11,10.62,200.00,5.00,17.10,13.50,241.00,7.00,8.60,7.03,151.00,7.00,16.94,14.44,297.00,7.00,3.73,3.07,67.00,6.00,0,휴식 (Relax)
15.50,-2.12,8.88,4.81,-0.06,31.75,32.98,100.19,75.47,44.31,32.98,39.77,56.00,72.65,76.00,87.01,38.83,12.15,76.00,60.70,98.00,22.15,27.68,67.46,34.21,31.00,36.85,11.55,28.00,27.02,61.39,127.65,55.00,22.84,18.60,109.45,11.00,10.55,10.84,23.57,18.25,1.72,10.03,21.68,11.00,13.70,11.50,232.00,6.00,16.43,12.73,240.00,6.00,8.76,7.39,140.00,6.00,16.94,14.44,319.00,7.00,3.70,2.95,69.00,8.00,0,휴식 (Relax)
7.50,6.81,-1.44,14.44,2.44,31.75,32.98,100.19,75.47,44.31,32.98,39.77,56.00,39.70,82.86,79.37,68.62,27.83,82.86,27.74,65.00,13.94,22.28,57.44,43.42,34.95,37.81,22.29,17.00,30.46,79.93,136.21,45.35,5.77,39.97,89.86,33.00,4.71,15.88,19.39,21.10,9.72,13.78,14.12,3.00,13.70,11.50,240.00,6.00,15.30,11.27,218.00,6.00,8.46,6.80,146.00,7.00,17.27,14.87,297.00,6.00,3.52,2.88,64.00,8.00,0,휴식 (Relax)
0.00,17.12,-1.06,25.44,2.44,26.92,26.45,92.88,82.37,52.31,40.06,34.99,48.00,30.31,93.18,89.50,65.92,21.79,72.73,38.32,76.00,13.95,25.59,53.06,46.62,38.91,32.85,17.46,23.00,30.46,79.93,136.21,45.35,5.77,39.97,89.86,33.00,4.71,15.88,19.39,21.10,9.72,13.78,14.12,3.00,13.56,11.00,248.00,4.00,15.83,11.78,229.00,6.00,8.39,6.46,140.00,6.00,17.27,14.87,297.00,6.00,3.52,2.88,61.00,7.00,0,휴식 (Relax)
-7.00,-4.19,-10.44,-26.81,-5.25,17.10,29.67,94.87,75.89,48.60,37.73,40.71,64.00,37.20,83.42,82.23,76.79,30.63,62.53,47.66,87.00,21.31,35.55,57.65,38.90,29.90,42.78,23.58,13.00,16.37,70.85,129.73,55.00,48.19,54.46,109.73,11.00,5.18,13.35,14.92,24.08,13.68,17.72,16.60,8.00,13.53,11.12,256.00,7.00,15.79,11.79,251.00,7.00,8.80,6.85,145.00,6.00,18.23,15.81,330.00,6.00,3.77,3.16,63.00,7.00,0,휴식 (Relax)
1.50,-43.81,20.81,-4.81,-4.56,13.26,37.38,102.75,68.35,41.62,32.17,40.18,56.00,76.71,86.21,118.23,87.32,35.15,96.28,43.85,33.00,7.91,23.31,30.37,61.72,43.40,64.18,43.72,15.00,16.37,70.85,129.73,55.00,48.19,54.46,109.73,11.00,13.13,20.40,19.76,17.46,8.20,7.35,17.38,3.00,13.33,10.69,232.00,7.00,19.34,14.31,272.00,6.00,10.22,8.36,173.00,7.00,18.23,15.81,341.00,6.00,3.66,3.12,55.00,6.00,0,휴식 (Relax)
0.00,8.81,-7.50,15.12,5.94,33.67,20.91,92.23,64.00,26.16,8.66,54.66,32.00,64.44,66.64,99.78,107.02,54.60,101.61,63.20,11.00,11.76,27.22,30.39,59.62,38.90,63.17,40.80,10.00,32.16,38.11,109.45,79.32,76.46,38.11,118.54,22.00,9.40,12.53,12.47,25.00,15.90,9.44,23.73,11.00,12.00,9.00,208.00,3.00,19.24,14.04,315.00,7.00,9.91,8.12,191.00,8.00,18.19,15.64,363.00,7.00,3.94,3.32,61.00,7.00,0,휴식 (Relax)
7.50,28.75,-7.19,13.06,5.12,41.65,25.08,98.32,56.00,21.22,16.34,47.20,40.00,70.52,35.46,112.34,124.02,63.48,119.31,30.20,44.00,9.67,22.31,25.67,64.26,39.64,66.21,40.20,5.00,65.06,33.00,131.63,66.91,57.26,33.00,97.61,11.00,17.88,12.44,19.33,24.74,13.87,3.65,11.05,2.00,12.16,9.62,192.00,6.00,20.61,15.31,326.00,7.00,10.06,8.36,168.00,7.00,17.91,14.95,319.00,6.00,3.74,3.25,51.00,6.00,0,휴식 (Relax)
-6.50,15.69,-10.12,-17.19,4.94,18.97,7.41,71.90,64.50,11.32,43.19,15.20,72.00,97.22,40.04,145.10,100.00,31.17,86.52,62.15,11.00,36.07,28.04,24.17,60.83,9.32,33.55,42.85,38.00,27.64,20.11,93.75,110.55,93.51,42.11,66.71,55.00,20.85,15.37,22.03,21.84,10.89,3.14,14.04,1.00,10.67,8.69,192.00,7.00,20.63,14.70,304.00,6.00,8.90,7.05,145.00,6.00,17.38,15.04,330.00,7.00,3.91,3.44,51.00,6.00,0,휴식 (Relax)
-20.50,-25.56,-0.44,-15.81,-2.75,38.78,35.93,87.47,40.00,26.80,40.66,46.46,40.00,53.87,9.70,139.25,136.47,51.35,58.00,102.04,33.00,31.12,23.05,19.44,65.76,4.79,29.51,43.58,43.00,30.02,29.81,101.48,110.55,78.43,47.51,85.64,33.00,16.10,11.55,22.74,23.71,9.54,7.91,18.68,6.00,11.65,9.50,192.00,6.00,21.28,16.17,348.00,7.00,8.80,6.85,155.00,6.00,17.81,15.81,319.00,7.00,3.94,3.47,56.00,7.00,0,휴식 (Relax)
10.50,18.44,4.88,6.88,2.44,22.96,29.96,72.25,53.67,39.38,55.41,60.91,24.00,53.87,9.70,139.25,136.47,51.35,58.00,102.04,33.00,22.40,17.83,22.13,68.31,10.94,32.59,46.91,32.00,39.15,32.23,112.45,99.61,73.58,37.16,74.67,44.00,14.05,12.07,25.71,21.10,6.91,5.69,16.55,3.00,11.91,9.81,216.00,7.00,21.28,16.17,370.00,7.00,8.78,7.03,161.00,7.00,17.34,15.12,297.00,7.00,3.76,3.26,53.00,7.00,0,휴식 (Relax)
9.00,17.06,-6.12,4.81,-0.69,4.72,48.32,75.07,48.00,48.80,35.34,46.92,48.00,73.50,30.79,125.05,156.17,58.55,39.27,94.53,11.00,22.40,17.83,22.13,68.31,10.94,32.59,46.91,32.00,7.43,54.24,106.45,108.34,40.58,14.28,44.40,77.00,14.73,10.34,24.78,22.20,5.35,6.25,16.00,1.00,11.62,9.25,200.00,6.00,21.71,16.59,359.00,6.00,8.78,7.03,167.00,8.00,16.02,13.66,264.00,6.00,3.70,3.15,56.00,8.00,0,휴식 (Relax)
8.50,16.38,-1.12,15.12,2.00,11.65,56.08,83.02,40.00,41.10,36.54,47.86,40.00,81.63,40.22,131.07,151.92,47.66,50.22,93.50,22.00,22.40,17.83,22.13,68.31,10.94,32.59,46.91,32.00,4.29,65.05,116.56,98.39,45.97,11.16,51.72,66.00,15.66,5.54,28.37,18.38,5.74,2.30,15.91,6.00,11.82,9.62,184.00,6.00,22.06,17.02,359.00,6.00,8.78,7.03,161.00,7.00,16.44,14.27,264.00,6.00,3.67,3.12,54.00,8.00,0,휴식 (Relax)
-6.00,-25.56,9.88,-5.50,-2.69,12.42,47.93,74.65,46.65,45.63,32.10,49.31,16.00,72.37,43.28,99.14,183.14,51.17,75.93,85.27,55.00,22.40,17.83,22.13,68.31,10.94,32.59,46.91,32.00,19.48,55.34,102.31,110.00,39.05,18.03,63.91,44.00,16.66,8.77,24.02,22.20,4.86,3.01,15.43,11.00,11.14,9.25,176.00,6.00,22.99,18.92,403.00,7.00,8.78,7.03,167.00,8.00,16.04,13.75,264.00,6.00,3.70,3.15,56.00,8.00,0,휴식 (Relax)
-6.00,-13.19,-0.75,4.81,2.12,12.42,47.93,74.65,46.65,45.63,32.10,49.31,16.00,82.03,64.64,99.43,177.90,29.21,73.45,97.07,33.00,18.60,17.43,27.55,66.71,9.99,35.61,41.51,38.00,9.09,50.99,96.99,118.98,28.87,23.37,68.42,33.00,14.79,8.80,23.69,24.08,3.27,5.15,14.74,14.00,11.14,9.25,176.00,6.00,23.16,19.54,414.00,7.00,8.69,6.66,162.00,8.00,16.02,13.66,275.00,7.00,3.74,3.25,61.00,9.00,0,휴식 (Relax)
16.50,39.75,-1.38,35.06,1.94,16.68,24.27,56.07,62.48,44.21,55.89,64.00,40.00,57.85,41.49,68.18,210.45,36.76,100.15,126.86,0.00,27.40,11.53,29.32,57.01,5.20,35.20,35.92,48.00,38.93,23.37,53.15,147.99,68.39,50.99,77.37,77.00,12.40,11.40,20.89,26.40,6.24,5.30,16.46,11.00,11.82,9.62,184.00,7.00,25.23,21.34,415.00,7.00,8.25,6.27,146.00,7.00,18.33,14.95,286.00,7.00,3.77,3.30,56.00,9.00,0,휴식 (Relax)
14.00,24.00,-1.00,0.00,-1.38,56.60,23.11,81.05,48.00,8.64,35.47,30.09,0.00,39.38,95.55,55.33,212.60,42.71,33.20,50.87,76.00,21.40,17.09,23.33,58.87,3.70,31.75,35.89,54.00,71.53,22.00,54.39,128.28,72.60,22.00,55.78,44.00,7.83,16.21,17.70,23.71,5.87,2.30,12.28,16.00,10.77,9.00,144.00,6.00,22.94,19.00,383.00,7.00,8.16,5.88,141.00,7.00,16.50,12.38,286.00,4.00,3.44,2.95,54.00,10.00,0,휴식 (Relax)
-8.50,11.62,-0.31,20.62,1.44,35.16,4.88,60.99,72.00,15.36,54.04,13.60,24.00,51.03,116.44,77.20,191.13,33.84,37.75,71.57,54.00,11.92,27.35,21.06,48.75,13.55,42.50,32.42,43.00,91.40,31.11,76.37,110.00,50.61,31.11,74.27,66.00,4.87,17.97,19.54,21.10,2.87,4.81,15.18,13.00,10.38,8.56,160.00,7.00,23.02,18.73,383.00,6.00,7.74,4.88,130.00,6.00,17.34,13.92,297.00,8.00,3.45,2.92,54.00,10.00,0,휴식 (Relax)
-7.50,-30.31,5.31,-21.31,-6.06,29.64,20.42,67.32,73.76,17.26,38.77,26.31,8.00,50.02,104.77,74.43,201.31,64.56,42.77,99.41,21.00,15.48,25.05,15.56,51.62,17.69,47.56,29.69,37.00,71.85,45.35,69.59,93.98,47.16,45.35,107.18,99.00,12.83,20.30,12.23,18.25,7.18,12.56,23.11,5.00,10.38,8.56,152.00,7.00,24.31,21.23,416.00,7.00,7.86,5.41,136.00,7.00,18.02,14.61,330.00,7.00,3.77,3.30,62.00,11.00,0,휴식 (Relax)
0.50,-6.94,9.62,22.69,-2.75,29.64,20.42,67.32,73.76,17.26,38.77,26.31,8.00,66.32,118.06,95.88,181.18,53.99,52.33,86.73,43.00,22.27,31.83,10.03,42.64,23.31,46.03,38.21,48.00,71.85,45.35,69.59,93.98,47.16,45.35,107.18,99.00,17.46,25.13,13.86,13.34,5.21,10.41,18.86,10.00,10.38,8.56,152.00,7.00,24.12,21.07,416.00,6.00,8.25,6.27,131.00,7.00,18.02,14.61,319.00,7.00,3.80,3.38,57.00,10.00,0,휴식 (Relax)
22.50,24.00,-2.00,8.94,1.75,26.69,35.93,66.49,86.53,33.66,40.66,11.59,40.00,34.93,85.15,82.21,197.47,81.71,85.15,89.00,76.00,28.36,41.83,19.44,37.12,14.40,39.78,28.47,38.00,71.22,35.43,50.44,88.68,44.94,82.04,79.60,55.00,12.62,18.78,5.99,13.93,12.99,16.10,16.13,18.00,11.74,9.69,168.00,7.00,24.84,21.75,406.00,7.00,7.72,5.88,109.00,7.00,16.14,13.32,308.00,9.00,3.53,3.09,62.00,11.00,0,휴식 (Relax)
-1.50,8.94,-0.56,7.56,4.06,26.69,35.93,66.49,86.53,33.66,40.66,11.59,40.00,30.14,55.00,139.76,147.99,54.38,55.00,71.80,11.00,28.50,30.69,19.39,19.72,29.65,17.88,6.40,15.00,72.54,56.27,70.72,66.91,23.02,62.06,84.35,77.00,16.55,21.65,11.89,5.39,11.92,5.76,16.93,7.00,11.74,9.69,192.00,8.00,21.02,18.05,363.00,7.00,5.50,3.97,81.00,6.00,15.90,13.06,286.00,8.00,3.31,2.83,54.00,10.00,0,휴식 (Relax)
-16.50,-2.06,-10.25,-13.06,-3.44,34.46,29.96,59.41,96.33,40.76,55.41,4.64,24.00,30.14,55.00,139.76,147.99,54.38,55.00,71.80,11.00,32.32,33.72,24.27,15.62,25.97,22.69,10.00,20.00,79.48,38.91,58.50,73.79,27.20,59.73,86.19,99.00,10.12,14.09,7.37,13.15,19.92,8.92,18.83,1.00,12.48,10.56,200.00,7.00,21.02,18.05,352.00,7.00,5.93,4.12,91.00,6.00,16.14,13.32,308.00,9.00,3.26,2.88,62.00,11.00,0,휴식 (Relax)
7.50,-31.62,21.00,-1.38,-2.94,34.46,29.96,59.41,96.33,40.76,55.41,4.64,24.00,41.36,0.00,169.99,118.47,45.45,0.00,113.24,66.00,8.84,6.16,33.17,21.63,45.19,44.16,34.69,48.00,88.03,40.80,66.41,64.14,16.66,51.88,88.83,88.00,4.54,7.24,14.71,14.32,18.29,1.24,20.01,7.00,12.48,10.56,208.00,7.00,21.96,19.59,374.00,7.00,7.92,5.88,119.00,7.00,15.98,12.72,286.00,8.00,3.13,2.81,62.00,11.00,0,휴식 (Relax)
14.00,2.06,7.69,17.88,-0.56,10.60,7.10,39.14,113.70,44.32,52.59,22.08,48.00,52.22,11.00,180.42,108.34,34.47,11.00,102.37,55.00,16.15,15.40,53.25,20.12,30.71,42.34,21.65,27.00,46.63,20.33,33.66,94.63,46.76,8.42,121.80,44.00,4.91,9.41,19.04,9.22,12.94,6.13,16.55,1.00,12.81,11.00,200.00,7.00,21.73,19.08,363.00,7.00,7.56,6.02,121.00,7.00,15.50,12.89,308.00,9.00,2.85,2.51,56.00,10.00,0,휴식 (Relax)
11.50,20.62,-8.00,-15.81,-0.69,29.67,32.98,64.15,93.64,4.54,32.98,18.96,8.00,13.73,47.86,184.31,99.61,54.66,63.26,50.43,0.00,13.15,11.78,52.68,24.70,33.94,46.49,22.53,22.00,35.68,19.05,41.66,88.68,40.01,19.05,111.04,55.00,4.64,7.42,19.64,10.63,11.36,7.42,15.08,1.00,11.30,9.94,168.00,6.00,20.90,17.70,341.00,6.00,7.79,6.25,131.00,7.00,14.54,12.29,319.00,10.00,2.78,2.40,51.00,9.00,0,휴식 (Relax)
-11.50,-11.00,3.00,5.50,2.31,15.37,24.00,51.31,108.81,16.35,24.00,34.87,8.00,16.55,32.61,162.67,121.50,74.40,78.72,40.09,22.00,13.15,11.78,52.68,24.70,33.94,46.49,22.53,22.00,25.29,15.56,51.51,79.32,34.77,15.56,121.90,44.00,4.64,7.42,19.64,10.63,11.36,7.42,15.08,1.00,11.65,10.50,192.00,7.00,20.94,17.88,374.00,5.00,7.79,6.25,131.00,7.00,14.55,12.38,341.00,11.00,2.78,2.40,51.00,9.00,0,휴식 (Relax)
-18.00,-9.62,-12.69,-46.75,-5.38,21.16,40.60,63.37,104.31,18.81,46.81,17.38,16.00,33.32,43.47,151.58,125.42,77.45,79.62,43.09,0.00,15.33,16.00,56.54,20.12,34.43,49.34,27.03,17.00,64.34,56.09,68.37,66.00,9.31,56.09,161.08,0.00,3.36,9.42,18.13,14.76,6.38,11.45,20.08,4.00,12.49,11.25,200.00,7.00,20.90,18.05,374.00,7.00,8.19,6.48,142.00,8.00,18.85,15.12,385.00,11.00,3.10,2.67,56.00,9.00,0,휴식 (Relax)
-9.00,-39.19,13.25,-2.06,-2.06,36.77,56.32,78.77,88.36,7.93,34.36,23.91,0.00,81.09,98.46,192.07,73.79,23.59,46.52,69.72,55.00,9.28,5.18,63.21,31.62,22.01,49.93,44.03,0.00,73.24,65.53,78.87,55.00,12.30,47.33,153.61,11.00,6.19,10.16,22.50,13.15,9.85,6.83,15.57,1.00,12.61,11.25,192.00,6.00,23.00,19.94,363.00,6.00,8.85,7.34,158.00,8.00,18.74,14.70,407.00,10.00,3.07,2.58,54.00,8.00,0,휴식 (Relax)
13.50,-7.56,2.56,-2.75,-0.19,14.44,46.53,78.92,89.44,31.10,42.46,39.45,24.00,65.88,84.10,173.54,85.91,17.93,30.21,91.10,77.00,10.24,2.22,58.26,34.71,17.13,47.38,48.70,5.00,67.68,63.26,78.41,56.09,22.92,47.86,150.42,22.00,5.32,11.07,21.05,15.13,9.64,6.59,14.42,3.00,12.87,11.81,216.00,7.00,21.90,18.56,385.00,6.00,8.67,6.99,158.00,7.00,18.45,14.09,396.00,10.00,3.03,2.48,51.00,7.00,0,휴식 (Relax)
12.00,22.69,-3.44,7.56,8.44,20.30,63.14,102.41,65.97,28.26,19.13,33.17,0.00,69.35,101.30,187.69,59.24,26.14,73.95,48.52,33.00,10.24,2.22,58.26,34.71,17.13,47.38,48.70,5.00,67.82,70.56,88.77,45.35,23.36,39.44,149.35,11.00,8.41,16.97,24.02,15.52,15.36,4.70,16.51,3.00,12.96,12.00,192.00,6.00,22.16,18.65,363.00,6.00,8.67,6.99,164.00,8.00,18.54,14.44,374.00,10.00,3.66,2.95,60.00,8.00,0,휴식 (Relax)
-10.50,23.38,-12.81,-11.69,-0.38,6.65,39.45,91.66,75.47,52.21,10.39,48.94,24.00,61.95,90.48,176.71,69.57,31.59,82.57,41.11,22.00,19.94,7.81,66.57,29.07,26.21,38.85,53.74,15.00,61.19,26.56,68.58,70.43,67.26,4.56,135.97,33.00,5.60,14.66,21.11,18.44,17.31,4.12,17.19,6.00,12.87,11.81,216.00,7.00,21.26,18.05,352.00,6.00,9.24,7.54,174.00,8.00,17.16,13.15,363.00,10.00,3.60,2.77,66.00,8.00,0,휴식 (Relax)
-16.50,-38.50,-2.81,-21.31,-2.25,34.66,34.55,117.24,51.22,48.23,21.68,19.74,8.00,32.18,51.26,166.65,79.32,85.77,97.33,86.00,88.00,19.94,7.81,66.57,29.07,26.21,38.85,53.74,15.00,60.98,19.05,87.63,59.24,61.39,19.05,148.67,11.00,3.60,14.74,20.96,18.97,18.19,5.54,17.46,4.00,13.11,11.62,200.00,6.00,22.68,19.25,407.00,7.00,9.24,7.54,184.00,8.00,18.02,14.61,352.00,9.00,3.65,2.84,65.00,7.00,0,휴식 (Relax)
-1.00,-14.44,7.50,2.06,-1.94,28.29,27.71,110.83,57.69,56.11,27.71,12.29,16.00,45.67,75.14,197.96,55.00,68.59,65.40,69.59,55.00,12.63,13.74,69.99,26.08,32.48,33.75,56.70,4.00,60.12,39.13,105.17,39.66,43.28,12.75,129.80,33.00,1.94,18.90,25.61,14.32,13.23,0.90,15.27,9.00,12.92,11.25,216.00,6.00,22.58,18.99,385.00,6.00,9.41,7.88,189.00,8.00,17.05,13.58,330.00,9.00,3.61,2.69,57.00,3.00,0,휴식 (Relax)
13.50,15.81,2.50,21.31,5.38,28.08,5.74,119.50,48.66,48.01,33.45,36.26,8.00,49.70,33.00,173.42,93.98,105.25,33.00,84.83,11.00,12.63,13.74,69.99,26.08,32.48,33.75,56.70,4.00,82.78,21.12,121.40,39.66,19.13,56.43,86.99,77.00,9.12,8.83,20.00,21.40,15.09,11.23,11.71,20.00,13.18,11.81,224.00,7.00,21.99,18.56,396.00,7.00,9.41,7.88,189.00,8.00,17.16,13.15,308.00,8.00,3.66,2.98,62.00,7.00,0,휴식 (Relax)
-2.50,35.06,-12.19,11.00,4.88,28.08,5.74,119.50,48.66,48.01,33.45,36.26,8.00,89.27,45.35,204.23,88.68,77.80,45.35,53.21,55.00,20.46,17.39,64.91,32.20,38.12,54.00,38.47,25.00,72.72,11.16,110.56,49.19,30.06,65.05,76.06,88.00,16.70,10.89,26.61,17.72,7.29,7.31,15.99,12.00,13.18,11.81,216.00,7.00,23.73,20.20,385.00,6.00,9.74,8.09,194.00,8.00,16.50,12.38,308.00,5.00,3.81,3.28,57.00,6.00,0,휴식 (Relax)
-1.00,13.75,-6.88,-9.62,1.88,10.00,19.60,114.23,50.60,32.77,19.60,25.03,16.00,78.30,34.36,194.45,99.61,85.38,46.98,44.82,66.00,23.50,22.37,69.37,28.32,33.19,51.45,43.33,20.00,50.76,11.16,108.00,62.23,27.90,65.05,95.82,66.00,16.70,10.89,26.61,17.72,7.29,7.31,15.99,12.00,11.96,10.25,192.00,6.00,23.17,19.59,396.00,6.00,9.88,8.36,199.00,8.00,16.44,12.72,330.00,9.00,3.81,3.28,57.00,6.00,0,휴식 (Relax)
-16.00,-37.81,8.44,-8.25,-7.31,12.95,31.65,128.41,35.78,24.83,16.67,25.43,0.00,38.20,40.48,207.07,118.98,41.49,88.31,97.99,11.00,22.29,17.17,61.61,36.62,32.71,55.63,54.20,9.00,30.64,31.77,128.49,49.19,6.36,48.77,81.93,88.00,14.86,7.82,32.65,18.79,7.20,5.73,3.00,25.00,12.65,11.00,192.00,4.00,24.89,21.31,440.00,7.00,10.11,8.81,205.00,9.00,16.27,12.72,308.00,8.00,4.06,3.18,59.00,6.00,0,휴식 (Relax)
14.00,16.50,-3.19,22.69,2.38,28.13,38.91,106.64,57.69,8.14,28.11,39.94,32.00,39.86,29.58,196.08,128.28,48.45,98.86,108.75,0.00,28.65,24.02,66.61,31.95,23.22,46.18,45.85,19.00,56.81,30.78,109.19,80.08,28.64,16.21,82.33,121.00,12.33,3.09,27.88,23.41,8.48,9.72,2.62,30.00,12.49,11.25,200.00,6.00,25.20,22.00,462.00,7.00,9.61,8.19,183.00,9.00,17.16,13.23,330.00,8.00,4.06,3.28,69.00,7.00,0,휴식 (Relax)
6.00,13.75,-6.44,0.69,10.50,28.13,38.91,106.64,57.69,8.14,28.11,39.94,32.00,56.24,35.72,182.44,155.56,18.19,86.23,76.24,44.00,9.74,5.29,39.55,59.03,20.34,23.54,39.64,47.00,56.81,30.78,109.19,80.08,28.64,16.21,82.33,121.00,10.54,11.03,30.36,31.11,20.14,14.37,11.40,16.00,12.49,11.25,200.00,6.00,24.44,20.97,429.00,6.00,8.30,7.24,176.00,9.00,17.16,13.23,330.00,8.00,4.83,3.94,76.00,7.00,0,휴식 (Relax)
-16.00,23.38,-10.12,-18.56,1.31,11.71,24.04,75.10,86.16,39.72,52.44,48.72,0.00,67.83,57.70,201.04,140.87,9.58,73.37,84.62,22.00,20.50,26.25,43.75,58.86,4.66,29.31,34.70,26.00,59.28,23.37,67.98,122.98,65.19,50.99,51.18,77.00,11.41,13.43,33.36,29.07,18.24,11.38,8.74,19.00,12.65,11.00,224.00,5.00,25.17,22.17,418.00,6.00,8.34,7.03,165.00,8.00,16.83,13.49,319.00,8.00,4.83,3.94,85.00,7.00,0,휴식 (Relax)
-21.50,-28.19,-0.44,-7.56,-3.56,49.76,60.11,78.12,80.40,41.89,18.84,25.98,40.00,73.29,44.89,160.52,187.00,50.58,25.43,106.38,33.00,17.68,23.10,38.76,63.79,9.64,29.06,33.36,21.00,59.28,23.37,67.98,122.98,65.19,50.99,51.18,77.00,11.52,13.15,32.68,30.61,19.37,10.25,7.76,21.00,13.18,11.50,208.00,6.00,25.49,22.69,440.00,6.00,8.24,6.80,164.00,7.00,16.83,13.49,308.00,7.00,4.90,4.06,87.00,7.00,0,휴식 (Relax)
2.00,-6.19,5.56,4.12,-7.94,42.05,53.30,70.13,88.36,49.79,22.08,23.70,48.00,73.29,44.89,160.52,187.00,50.58,25.43,106.38,33.00,17.68,23.10,38.76,63.79,9.64,29.06,33.36,21.00,69.73,31.77,78.47,112.18,61.49,48.77,40.68,66.00,18.72,21.12,40.78,25.63,10.00,12.33,12.74,11.00,13.11,11.25,224.00,7.00,25.49,22.69,462.00,6.00,8.24,6.80,154.00,7.00,16.44,12.89,264.00,7.00,5.30,4.43,84.00,6.00,0,휴식 (Relax)
23.50,4.12,4.56,11.69,1.56,27.69,60.11,63.65,100.24,55.51,18.84,55.75,8.00,62.85,34.79,149.54,196.77,59.85,34.79,108.30,22.00,27.10,37.40,51.82,48.05,12.08,13.09,21.88,5.00,16.00,57.67,61.54,114.84,10.09,35.67,14.52,11.00,10.91,13.67,34.63,33.24,13.48,13.67,18.12,3.00,13.99,11.62,240.00,7.00,25.47,22.52,440.00,7.00,7.87,6.62,127.00,6.00,13.17,10.48,231.00,6.00,5.09,4.19,91.00,7.00,0,휴식 (Relax)
-1.00,11.69,5.25,11.00,1.25,33.24,67.85,71.43,93.30,47.59,16.12,47.75,16.00,8.31,55.00,142.10,179.07,37.59,55.00,88.59,77.00,16.81,27.77,43.64,51.48,14.17,8.53,14.30,6.00,11.99,68.45,72.14,104.36,20.94,40.07,4.71,22.00,5.96,13.02,36.74,32.25,8.94,15.95,16.21,8.00,13.82,11.25,240.00,7.00,23.49,20.11,418.00,7.00,6.91,5.84,116.00,6.00,13.47,11.00,231.00,3.00,5.02,4.03,89.00,7.00,0,휴식 (Relax)
0.00,10.31,-0.38,10.31,6.69,18.75,54.83,63.58,102.45,46.37,28.88,33.69,32.00,16.91,76.84,163.02,157.50,16.46,33.37,100.67,55.00,10.83,27.27,46.41,46.07,18.16,5.31,19.37,0.00,19.34,75.25,79.23,101.41,20.80,29.52,13.26,11.00,5.24,20.63,45.70,23.35,11.71,7.23,17.41,1.00,13.27,10.00,240.00,3.00,23.49,19.77,385.00,6.00,6.77,5.47,116.00,6.00,13.73,11.77,220.00,6.00,5.29,4.23,86.00,6.00,0,휴식 (Relax)
-6.50,-9.62,-5.06,-20.62,-3.62,6.77,57.94,82.14,85.04,24.45,9.94,50.92,8.00,16.13,61.55,144.40,154.00,23.71,32.42,130.56,22.00,6.19,31.09,51.36,44.01,13.87,9.77,14.39,5.00,14.62,83.98,97.53,69.57,53.68,14.41,43.73,22.00,6.18,10.98,43.64,24.04,11.96,5.23,20.64,12.00,12.72,9.88,224.00,6.00,22.97,19.59,407.00,7.00,6.90,5.70,111.00,6.00,14.49,12.55,231.00,6.00,5.09,4.17,88.00,6.00,0,휴식 (Relax)
1.00,-17.88,4.94,0.69,-6.31,7.04,50.84,75.63,91.21,18.35,15.21,55.77,0.00,59.46,91.99,175.15,110.00,29.75,15.78,86.57,66.00,20.42,15.40,49.70,29.68,23.50,25.16,4.53,21.00,9.07,73.63,87.25,73.79,59.26,25.09,53.19,33.00,10.61,11.70,48.18,19.31,15.58,1.06,20.37,7.00,12.61,9.38,224.00,7.00,22.64,19.77,352.00,6.00,6.51,5.57,112.00,7.00,14.27,11.86,242.00,7.00,5.32,4.52,89.00,6.00,0,휴식 (Relax)
15.00,1.38,9.25,30.25,9.81,38.23,21.78,89.28,75.89,29.29,17.13,54.97,32.00,28.95,49.19,137.52,118.47,70.06,49.19,49.47,110.00,30.00,13.92,60.19,25.50,15.40,20.84,7.99,10.00,58.65,32.23,102.84,34.79,100.10,37.16,45.81,22.00,9.53,5.87,39.31,27.66,28.53,14.68,29.42,7.00,12.61,9.38,224.00,7.00,20.16,16.84,352.00,7.00,6.93,6.12,106.00,6.00,15.31,12.72,253.00,7.00,5.83,4.77,106.00,7.00,0,휴식 (Relax)
-1.00,30.94,-10.44,7.56,3.31,38.23,21.78,89.28,75.89,29.29,17.13,54.97,32.00,64.40,55.00,159.32,70.43,83.11,55.00,87.22,55.00,21.67,11.40,49.95,6.40,32.03,37.15,27.37,11.00,69.37,37.83,113.71,24.60,91.62,27.33,38.11,11.00,17.06,9.04,44.46,23.26,28.77,10.21,21.83,1.00,12.61,9.38,224.00,7.00,21.02,16.93,352.00,6.00,7.04,6.12,122.00,7.00,15.42,13.06,253.00,6.00,5.80,4.55,104.00,6.00,0,휴식 (Relax)
0.00,8.94,-9.44,-12.38,-2.31,27.85,17.13,87.91,72.44,45.12,21.78,41.81,16.00,64.40,55.00,159.32,70.43,83.11,55.00,87.22,55.00,31.60,20.74,62.82,11.70,23.23,22.44,16.72,5.00,46.08,6.44,110.50,31.11,107.09,37.56,18.30,22.00,11.15,10.38,38.94,28.79,34.65,14.08,15.83,7.00,12.00,8.00,208.00,2.00,21.02,16.93,352.00,6.00,7.31,6.38,106.00,6.00,15.00,12.55,264.00,7.00,5.76,4.61,110.00,7.00,0,휴식 (Relax)
-15.00,-20.62,5.56,-11.00,-1.94,30.54,14.78,102.90,56.57,39.81,6.12,57.24,32.00,21.22,34.79,157.18,44.00,89.91,34.79,91.56,110.00,16.90,23.43,50.68,16.28,36.88,24.02,22.94,21.00,47.77,15.56,131.43,22.00,85.86,15.56,33.83,0.00,7.09,16.25,39.64,27.29,31.78,8.12,21.46,1.00,12.61,9.38,224.00,7.00,20.16,16.84,363.00,7.00,7.04,6.12,117.00,7.00,15.06,12.38,242.00,3.00,5.71,4.57,107.00,7.00,0,휴식 (Relax)
8.50,12.38,-0.75,-0.69,-6.44,25.23,19.31,97.81,56.00,46.83,3.31,65.15,40.00,21.22,34.79,157.18,44.00,89.91,34.79,91.56,110.00,12.00,28.29,52.89,20.00,33.42,19.39,18.49,16.00,41.51,11.00,124.82,33.00,85.52,11.00,44.77,11.00,10.31,23.24,47.51,19.42,26.90,14.36,16.15,9.00,12.80,9.69,232.00,7.00,20.16,16.84,341.00,7.00,6.91,5.84,107.00,7.00,14.79,11.86,253.00,6.00,5.94,4.94,102.00,6.00,0,휴식 (Relax)
14.50,-11.69,5.56,-1.38,-1.88,17.22,51.31,117.00,24.00,31.08,28.69,41.08,8.00,29.59,11.00,139.73,55.00,84.60,11.00,62.47,77.00,16.96,24.22,47.92,23.35,35.95,14.80,13.56,11.00,33.66,20.33,131.06,34.79,75.32,8.42,34.40,0.00,4.52,21.72,44.20,19.24,20.00,17.78,16.55,16.00,12.72,9.88,208.00,6.00,17.16,14.44,308.00,7.00,6.54,5.49,102.00,7.00,14.49,11.34,220.00,5.00,5.54,4.50,97.00,5.00,0,휴식 (Relax)
-8.00,-10.31,9.88,20.62,1.12,25.42,38.31,94.98,33.94,53.42,48.71,42.60,16.00,27.24,16.21,126.34,73.79,105.45,30.78,41.23,55.00,9.01,27.63,51.98,17.72,46.78,15.50,3.52,0.00,33.66,20.33,131.06,34.79,75.32,8.42,34.40,0.00,4.52,21.72,44.20,19.24,20.00,17.78,16.55,16.00,12.33,9.00,224.00,3.00,17.16,14.52,308.00,7.00,7.02,6.12,102.00,7.00,14.49,11.34,220.00,5.00,5.54,4.50,91.00,6.00,0,휴식 (Relax)
0.50,11.69,-6.12,-11.69,-3.00,33.12,42.46,95.81,28.84,48.84,46.53,37.65,8.00,27.24,16.21,126.34,73.79,105.45,30.78,41.23,55.00,9.01,27.63,51.98,17.72,46.78,15.50,3.52,0.00,44.62,19.05,129.92,39.66,72.03,19.05,39.93,11.00,18.47,7.80,31.49,25.50,11.35,29.92,8.15,2.00,12.16,8.69,208.00,7.00,17.16,14.52,319.00,8.00,7.02,6.12,113.00,8.00,14.79,11.86,231.00,6.00,4.95,4.00,87.00,7.00,0,휴식 (Relax)
-0.50,-8.25,-1.75,-22.69,-2.69,17.47,26.77,80.39,43.08,59.72,57.02,25.95,8.00,58.46,28.96,124.12,46.67,94.32,50.49,18.74,22.00,15.53,19.54,42.55,22.67,39.17,24.94,10.84,10.00,44.62,19.05,129.92,39.66,72.03,19.05,39.93,11.00,23.23,4.68,32.50,22.02,16.31,25.38,11.24,7.00,11.48,7.75,200.00,6.00,16.27,13.75,286.00,8.00,6.42,5.50,108.00,8.00,14.79,11.86,231.00,6.00,4.97,3.98,82.00,6.00,0,휴식 (Relax)
-9.50,-9.62,3.88,8.94,2.00,11.28,15.36,71.32,40.00,45.93,41.04,40.46,8.00,36.98,31.31,103.53,64.14,72.95,58.10,31.37,0.00,21.45,13.54,42.89,18.60,44.78,22.55,4.87,4.00,31.41,4.56,114.35,55.00,85.67,26.56,48.12,11.00,19.56,5.02,27.54,26.08,19.21,24.31,16.07,12.00,9.89,7.25,184.00,6.00,14.49,12.38,264.00,8.00,6.48,5.61,108.00,8.00,14.66,11.95,253.00,7.00,4.95,4.00,82.00,7.00,0,휴식 (Relax)
6.00,21.31,-1.75,-2.06,-1.44,17.17,19.36,76.51,32.00,44.86,46.75,32.48,0.00,23.21,63.52,83.43,55.00,96.86,73.51,7.73,33.00,15.73,18.19,37.13,23.71,45.48,25.94,3.07,2.00,31.41,4.56,114.35,55.00,85.67,26.56,48.12,11.00,18.40,7.82,24.77,23.09,23.12,20.71,9.24,5.00,10.00,7.75,176.00,6.00,15.30,13.15,286.00,9.00,6.42,5.50,114.00,9.00,14.66,11.95,253.00,7.00,4.51,3.62,75.00,7.00,0,휴식 (Relax)
-0.50,-11.00,-1.38,-1.38,1.56,7.70,4.88,54.64,40.00,23.73,54.04,15.21,24.00,19.67,55.03,77.06,66.00,94.83,84.47,13.04,44.00,12.05,20.32,33.57,21.59,50.62,19.97,3.74,4.00,28.97,8.42,103.37,64.14,96.67,20.33,37.35,0.00,18.40,7.82,24.77,23.09,23.12,20.71,9.24,5.00,8.23,5.75,160.00,6.00,15.56,13.75,308.00,8.00,6.33,5.30,114.00,9.00,14.49,11.34,253.00,7.00,4.51,3.62,78.00,8.00,0,휴식 (Relax)
-15.50,-30.25,-5.69,-31.62,-5.94,22.10,18.84,58.67,28.84,38.64,60.11,21.55,8.00,39.35,69.27,34.46,79.32,137.78,58.56,38.88,0.00,15.62,20.27,40.90,11.18,42.52,29.38,8.93,7.00,41.25,51.88,98.76,56.09,90.03,40.80,81.09,44.00,13.80,14.28,18.19,22.02,24.00,28.25,14.79,13.00,9.15,6.69,176.00,9.00,17.17,14.78,330.00,9.00,6.39,5.23,113.00,8.00,16.44,12.72,286.00,7.00,4.75,3.80,80.00,9.00,0,휴식 (Relax)
0.50,-17.19,9.62,12.38,-2.25,22.10,18.84,58.67,28.84,38.64,60.11,21.55,8.00,65.88,102.08,47.44,55.00,123.05,53.76,6.92,33.00,7.80,27.42,31.31,11.66,48.19,34.70,19.91,18.00,41.25,51.88,98.76,56.09,90.03,40.80,81.09,44.00,9.86,24.91,24.09,11.05,13.14,24.97,12.57,2.00,9.15,6.69,184.00,9.00,17.38,14.61,319.00,8.00,6.85,5.92,124.00,9.00,16.44,12.72,297.00,7.00,4.31,3.22,72.00,8.00,0,휴식 (Relax)
7.50,24.75,3.94,10.31,2.44,19.60,27.35,54.53,24.00,53.25,46.86,26.81,24.00,50.94,79.62,20.37,83.77,149.12,43.47,29.84,66.00,7.94,38.39,35.18,6.08,37.64,37.79,10.90,7.00,50.32,63.19,82.44,70.43,73.34,63.19,64.56,11.00,12.16,22.52,19.54,12.53,11.10,28.41,15.97,3.00,9.15,6.69,184.00,7.00,18.45,16.16,352.00,9.00,6.73,5.81,118.00,8.00,15.78,11.86,275.00,7.00,4.32,3.33,74.00,9.00,0,휴식 (Relax)
14.50,22.00,-1.69,9.62,7.56,31.83,43.34,68.91,8.00,43.98,51.01,15.47,8.00,73.52,97.60,57.85,77.78,115.16,80.29,15.84,22.00,7.93,34.71,29.23,12.04,37.70,43.47,10.67,1.00,59.92,74.05,90.85,62.23,65.62,52.39,64.64,22.00,25.34,30.62,24.98,6.71,8.08,14.43,4.98,11.00,9.89,7.88,176.00,6.00,18.65,16.50,330.00,8.00,6.67,5.65,119.00,9.00,15.98,12.55,242.00,6.00,4.51,3.62,63.00,8.00,0,휴식 (Relax)
-0.50,0.00,-1.00,-9.62,-5.38,16.08,34.42,58.60,17.89,55.67,47.66,10.96,8.00,73.52,97.60,57.85,77.78,115.16,80.29,15.84,22.00,17.50,38.36,28.57,16.97,27.39,34.07,9.76,12.00,16.33,46.67,56.92,98.39,27.82,46.67,66.57,66.00,8.96,13.65,9.89,23.19,14.75,13.33,14.58,28.00,9.15,6.69,176.00,6.00,18.65,16.50,319.00,8.00,6.22,5.00,98.00,8.00,13.95,11.34,242.00,7.00,3.85,3.09,71.00,9.00,0,휴식 (Relax)
-0.50,-39.19,14.31,2.06,0.00,16.08,34.42,58.60,17.89,55.67,47.66,10.96,8.00,4.52,58.24,116.00,116.93,38.19,86.59,62.78,99.00,9.60,15.05,7.38,40.80,20.05,39.94,29.65,39.00,5.61,52.36,63.08,93.98,24.88,37.05,67.58,55.00,6.75,10.76,13.40,24.70,16.48,7.50,10.55,22.00,9.15,6.69,176.00,6.00,19.43,16.59,341.00,9.00,6.66,5.52,115.00,9.00,13.59,10.83,231.00,7.00,3.57,2.62,70.00,5.00,0,휴식 (Relax)
7.00,26.12,-12.69,1.38,2.81,23.32,27.26,50.76,25.30,57.32,55.65,15.81,0.00,6.77,51.26,107.99,124.45,36.05,97.33,73.39,110.00,9.60,15.05,7.38,40.80,20.05,39.94,29.65,39.00,15.50,41.51,52.58,104.36,14.91,26.39,74.06,44.00,6.20,9.64,10.74,27.51,19.47,5.01,10.54,19.00,9.33,7.25,168.00,7.00,20.16,17.36,374.00,9.00,6.66,5.52,126.00,9.00,13.40,10.14,231.00,7.00,3.64,2.86,73.00,9.00,0,휴식 (Relax)
5.50,23.38,-2.31,21.31,8.25,44.01,7.41,52.16,28.84,33.60,43.19,10.10,24.00,49.81,11.16,131.41,158.64,19.14,65.05,46.35,66.00,6.15,20.05,12.16,46.57,18.40,35.04,27.56,33.00,46.31,23.37,60.39,99.00,46.04,50.99,47.47,77.00,9.05,5.06,15.02,31.62,18.66,10.51,9.80,28.00,8.35,6.81,144.00,6.00,20.53,17.88,341.00,8.00,6.63,5.39,130.00,8.00,14.27,10.48,242.00,7.00,4.22,3.47,74.00,9.00,0,휴식 (Relax)
-9.50,22.69,-11.69,-0.69,1.75,34.28,14.31,36.27,43.08,28.02,52.34,23.74,40.00,59.84,1.89,141.90,152.82,26.53,64.11,46.90,77.00,12.45,24.82,15.04,50.09,10.90,37.60,28.00,43.00,46.31,23.37,60.39,99.00,46.04,50.99,47.47,77.00,14.57,6.45,22.62,25.46,11.07,11.24,12.71,20.00,8.59,6.88,152.00,7.00,21.11,18.56,319.00,7.00,7.26,5.86,134.00,7.00,14.27,10.48,264.00,8.00,3.98,3.25,75.00,9.00,0,휴식 (Relax)
-8.00,-30.94,4.31,-31.62,-7.81,40.12,31.41,31.61,56.57,13.22,28.38,16.98,16.00,46.77,23.37,141.43,172.18,46.97,50.99,47.16,99.00,12.45,24.82,15.04,50.09,10.90,37.60,28.00,43.00,39.43,9.76,60.66,104.36,75.61,72.31,80.46,44.00,12.14,9.02,22.76,30.81,7.70,18.02,19.17,13.00,8.00,6.00,128.00,2.00,22.42,19.94,374.00,8.00,7.26,5.86,145.00,8.00,16.44,12.89,275.00,7.00,4.45,3.69,82.00,9.00,0,휴식 (Relax)
7.00,-19.25,14.94,23.38,2.19,28.72,30.19,16.38,68.82,5.63,19.20,30.38,0.00,47.34,32.42,151.86,167.55,47.02,61.55,49.96,88.00,6.87,29.71,20.99,53.00,13.46,43.21,31.61,37.00,39.43,9.76,60.66,104.36,75.61,72.31,80.46,44.00,12.14,9.02,22.76,30.81,7.70,18.02,19.17,13.00,7.94,6.25,136.00,7.00,22.84,20.62,363.00,7.00,7.86,6.33,140.00,7.00,16.44,12.89,297.00,7.00,4.45,3.69,87.00,9.00,0,휴식 (Relax)
6.50,24.06,-7.06,-9.62,-2.81,22.38,37.08,11.79,73.76,11.79,17.00,22.38,8.00,42.52,31.17,144.97,177.71,57.69,71.26,58.07,77.00,6.87,29.71,20.99,53.00,13.46,43.21,31.61,37.00,39.43,9.76,60.66,104.36,75.61,72.31,80.46,44.00,12.14,9.02,22.76,30.81,7.70,18.02,19.17,13.00,8.11,6.69,136.00,7.00,23.41,21.31,385.00,7.00,7.86,6.33,157.00,8.00,16.44,12.89,319.00,8.00,4.45,3.69,92.00,10.00,0,휴식 (Relax)
6.00,-8.94,-2.06,0.00,1.88,15.18,44.77,18.48,67.88,8.03,23.58,29.99,0.00,42.52,31.17,144.97,177.71,57.69,71.26,58.07,77.00,6.87,29.71,20.99,53.00,13.46,43.21,31.61,37.00,18.39,30.36,76.39,83.77,53.64,73.28,91.51,22.00,8.07,10.29,25.79,28.18,8.03,15.82,22.75,8.00,8.25,7.00,128.00,7.00,23.41,21.31,418.00,8.00,7.86,6.33,156.00,7.00,15.56,11.00,297.00,4.00,4.41,3.61,92.00,10.00,0,휴식 (Relax)
-25.00,-49.25,8.62,-19.94,-5.62,31.08,39.19,12.53,80.00,23.43,39.19,43.73,16.00,83.41,12.04,102.55,218.22,88.52,98.00,16.04,120.00,8.97,28.99,16.78,57.31,15.53,45.60,26.93,42.00,51.38,18.60,50.25,101.41,52.97,61.39,104.43,11.00,15.76,3.44,18.44,35.47,6.08,9.39,27.40,0.00,10.15,8.00,144.00,7.00,26.54,24.00,428.00,7.00,8.11,6.72,161.00,7.00,16.14,12.46,308.00,9.00,4.62,3.88,97.00,10.00,0,휴식 (Relax)
-0.50,-14.50,3.25,-8.25,2.19,38.77,44.29,20.42,75.47,20.42,35.18,38.77,8.00,126.99,54.20,103.38,209.16,57.65,54.20,56.34,76.00,14.57,24.83,19.17,60.46,19.55,39.80,31.46,36.00,61.74,29.16,55.87,93.34,42.04,70.41,103.24,0.00,12.84,6.40,18.41,36.67,4.47,6.40,28.57,3.00,9.99,7.56,160.00,6.00,25.89,23.06,427.00,6.00,8.13,6.84,166.00,7.00,16.27,13.06,319.00,9.00,4.65,3.96,102.00,10.00,0,휴식 (Relax)
7.00,48.06,-12.12,13.06,2.19,32.72,36.30,17.83,82.37,27.39,38.71,38.02,0.00,83.23,48.30,49.84,263.92,100.80,48.30,106.39,21.00,4.76,34.79,9.46,68.96,28.85,31.46,37.52,26.00,53.82,20.71,45.23,101.41,37.84,81.17,107.39,11.00,12.84,6.40,18.41,36.67,4.47,6.40,28.57,3.00,10.15,8.00,152.00,7.00,28.70,26.06,471.00,7.00,8.68,7.39,177.00,8.00,16.60,13.58,308.00,9.00,4.65,3.96,94.00,9.00,0,휴식 (Relax)
5.50,22.62,-2.44,20.62,4.50,32.43,25.08,40.47,73.76,18.90,16.34,36.13,24.00,82.67,102.05,43.18,265.06,68.78,17.38,73.22,76.00,9.11,31.18,10.92,66.64,29.69,31.27,39.60,21.00,62.72,60.01,67.39,77.78,33.90,68.02,76.57,44.00,11.83,13.33,12.39,33.38,9.77,12.10,27.04,14.00,9.26,7.19,136.00,7.00,28.32,25.45,482.00,7.00,8.51,7.12,171.00,7.00,15.50,12.55,275.00,6.00,4.56,3.75,94.00,9.00,0,휴식 (Relax)
-10.00,-0.75,-1.75,-21.31,-1.62,27.55,20.91,36.47,81.58,26.80,8.66,35.91,32.00,98.59,120.42,65.04,243.25,54.15,31.10,76.03,54.00,7.58,32.72,19.65,56.94,21.94,40.07,42.09,10.00,38.61,33.11,40.25,110.55,38.30,96.49,60.41,77.00,13.30,14.02,14.05,31.40,8.43,10.17,27.76,12.00,9.59,7.75,144.00,7.00,27.78,24.00,460.00,7.00,8.23,6.56,166.00,7.00,16.25,13.23,319.00,9.00,4.48,3.59,95.00,9.00,0,휴식 (Relax)
-16.50,-50.00,4.25,-39.88,-8.00,16.36,9.27,55.63,80.40,25.46,28.46,48.88,8.00,33.62,125.12,84.11,264.50,25.07,106.61,100.91,22.00,7.58,32.72,19.65,56.94,21.94,40.07,42.09,10.00,32.46,66.44,80.25,118.47,82.64,48.59,104.14,22.00,4.76,19.89,8.40,31.40,16.02,10.21,35.58,2.00,10.38,8.50,144.00,7.00,30.14,26.50,514.00,7.00,8.23,6.56,166.00,7.00,19.00,15.64,341.00,9.00,4.92,4.12,96.00,9.00,0,휴식 (Relax)
0.50,-4.94,8.56,15.12,-0.44,19.41,16.34,68.84,64.50,9.49,25.08,34.56,24.00,19.54,155.92,115.69,234.83,22.60,88.27,95.37,11.00,3.78,43.33,25.42,47.80,26.13,35.51,47.71,21.00,32.46,66.44,80.25,118.47,82.64,48.59,104.14,22.00,5.62,28.88,16.74,22.56,10.88,2.84,26.79,11.00,9.58,7.69,144.00,6.00,29.41,25.31,535.00,7.00,8.51,7.12,171.00,7.00,19.00,15.64,374.00,9.00,4.47,3.69,89.00,8.00,0,휴식 (Relax)
15.50,16.38,-7.12,3.44,-0.75,22.08,20.42,72.78,68.35,16.00,38.77,18.95,40.00,23.59,146.13,114.64,240.13,33.23,92.57,100.10,22.00,3.41,39.16,20.81,50.99,23.75,38.14,52.07,26.00,34.01,61.72,84.25,122.98,87.41,41.91,93.75,33.00,4.51,25.77,14.23,24.17,15.08,2.81,21.85,16.00,10.38,8.50,160.00,7.00,29.67,26.00,513.00,7.00,8.68,7.39,170.00,7.00,18.94,15.30,374.00,8.00,4.25,3.38,84.00,8.00,0,휴식 (Relax)
7.00,2.62,4.56,13.75,2.06,28.93,28.38,80.78,60.93,10.27,31.41,26.92,32.00,65.10,139.86,155.58,203.21,50.18,52.86,71.59,22.00,14.14,38.90,24.01,43.42,34.75,27.37,41.13,15.00,41.92,66.97,95.24,113.25,76.49,52.67,102.11,22.00,6.84,26.50,16.52,21.47,12.94,3.45,24.43,13.00,10.54,8.88,160.00,6.00,27.95,23.58,458.00,6.00,7.87,6.62,154.00,7.00,19.25,15.81,385.00,8.00,4.28,3.45,84.00,8.00,0,휴식 (Relax)
-15.50,-26.94,3.56,-17.88,-7.31,5.31,18.49,74.18,73.76,31.12,32.65,49.60,8.00,15.44,107.62,126.68,239.84,102.32,10.20,45.53,77.00,4.65,28.14,8.42,56.82,43.36,15.95,26.06,1.00,21.64,45.72,89.96,125.42,73.89,71.90,114.38,0.00,3.35,18.26,9.40,27.59,19.55,13.44,31.66,3.00,11.12,9.62,184.00,7.00,28.09,23.94,491.00,7.00,7.36,6.19,144.00,7.00,19.78,17.02,396.00,9.00,4.65,3.81,88.00,9.00,0,휴식 (Relax)
8.50,-2.88,7.88,15.81,-1.62,5.31,18.49,74.18,73.76,31.12,32.65,49.60,8.00,33.26,77.51,152.12,218.60,102.08,24.43,65.78,44.00,15.02,17.66,13.79,52.50,49.11,16.50,34.48,10.00,10.95,36.25,99.66,116.93,63.73,68.82,111.83,11.00,13.78,7.28,18.57,21.54,11.61,9.33,27.76,14.00,11.12,9.62,192.00,7.00,27.15,22.23,513.00,7.00,7.61,6.48,139.00,7.00,19.04,16.41,407.00,10.00,4.09,3.47,87.00,9.00,0,휴식 (Relax)
22.50,30.12,-8.44,4.81,0.56,37.01,13.86,52.68,97.65,54.51,13.86,42.93,40.00,33.26,77.51,152.12,218.60,102.08,24.43,65.78,44.00,19.93,13.18,18.29,47.76,44.29,18.98,31.97,5.00,10.95,36.25,99.66,116.93,63.73,68.82,111.83,11.00,16.42,5.87,20.80,18.79,10.05,7.18,27.29,11.00,12.40,10.31,208.00,7.00,27.15,22.23,491.00,7.00,7.15,6.13,139.00,7.00,19.04,16.41,385.00,9.00,4.00,3.33,79.00,8.00,0,휴식 (Relax)
-2.00,-4.25,-3.06,2.75,2.94,44.37,20.91,57.87,93.30,48.43,8.66,39.41,32.00,14.10,90.17,157.28,206.17,90.86,35.90,43.92,66.00,15.15,15.76,19.21,46.10,44.05,24.93,32.15,1.00,43.14,32.23,114.48,94.63,60.58,37.16,97.14,22.00,12.29,8.77,25.52,17.12,0.32,3.01,24.19,1.00,12.17,9.75,216.00,7.00,26.40,21.03,513.00,8.00,7.16,6.19,133.00,7.00,17.61,14.44,330.00,8.00,3.72,2.95,72.00,8.00,0,휴식 (Relax)
-16.50,-4.94,3.62,4.12,0.12,31.61,25.08,36.49,114.54,61.27,16.34,28.76,8.00,14.53,90.09,168.24,196.92,83.80,24.93,53.69,55.00,14.65,17.72,30.19,35.44,34.00,17.72,28.39,10.00,26.11,45.45,93.05,113.25,43.66,18.83,84.53,44.00,11.71,8.80,22.66,20.10,3.28,5.15,22.86,2.00,12.80,10.50,232.00,7.00,26.14,20.43,469.00,7.00,6.26,5.50,117.00,7.00,16.44,13.41,297.00,7.00,3.64,2.80,70.00,6.00,0,휴식 (Relax)
-7.50,-13.19,-2.69,-17.19,-1.88,37.25,41.04,42.81,108.81,46.55,15.36,39.06,24.00,34.78,123.89,153.23,176.41,42.69,33.66,89.65,11.00,11.92,19.72,28.39,34.37,30.34,19.72,26.06,15.00,25.61,56.43,92.19,108.34,54.17,21.12,93.40,33.00,11.71,8.80,22.66,20.10,3.28,5.15,22.86,2.00,12.80,10.62,240.00,7.00,25.34,18.98,447.00,6.00,6.01,5.19,118.00,8.00,16.94,14.27,308.00,7.00,3.64,2.80,67.00,5.00,0,휴식 (Relax)
16.00,18.44,2.94,25.44,3.12,31.01,35.47,34.99,116.48,47.80,23.11,46.74,32.00,22.46,102.50,135.76,197.03,50.41,55.43,105.52,11.00,8.67,25.58,33.28,28.44,28.48,14.00,30.63,9.00,23.21,44.89,72.56,128.75,60.93,25.43,115.03,11.00,11.71,8.80,22.66,20.10,3.28,5.15,22.86,2.00,13.27,11.00,232.00,4.00,25.78,20.26,437.00,7.00,6.02,5.18,113.00,8.00,18.12,15.30,330.00,7.00,3.64,2.80,64.00,5.00,0,휴식 (Relax)
6.00,4.06,3.25,-8.25,-0.19,11.40,49.94,43.59,112.00,16.88,17.94,15.65,0.00,61.83,88.66,91.21,186.32,10.07,47.55,93.29,43.00,12.48,21.60,29.33,28.00,23.57,9.66,35.50,4.00,25.43,50.49,64.11,125.42,68.44,28.96,104.34,22.00,16.53,7.24,19.15,21.19,2.21,1.24,17.87,7.00,11.83,10.00,216.00,7.00,22.83,17.81,416.00,7.00,5.72,4.91,108.00,8.00,17.61,14.44,352.00,8.00,3.41,2.48,59.00,7.00,0,휴식 (Relax)
-2.00,13.00,3.25,12.38,2.81,11.40,49.94,43.59,112.00,16.88,17.94,15.65,0.00,94.83,114.91,107.35,153.39,22.96,20.40,84.65,10.00,12.48,21.60,29.33,28.00,23.57,9.66,35.50,4.00,34.11,72.31,74.66,104.36,49.18,9.76,122.65,0.00,16.53,7.24,19.15,21.19,2.21,1.24,17.87,7.00,11.83,10.00,216.00,7.00,22.61,17.38,361.00,6.00,5.72,4.91,92.00,7.00,17.77,14.27,352.00,8.00,3.41,2.48,62.00,8.00,0,휴식 (Relax)
-9.00,-15.88,-3.38,-18.56,-1.88,23.81,40.25,44.44,113.14,18.97,13.11,26.11,16.00,43.22,52.73,46.69,162.59,78.21,46.12,80.18,56.00,3.50,16.79,19.37,29.73,20.02,8.84,27.64,14.00,38.83,50.99,43.36,99.00,64.69,23.37,144.86,33.00,12.57,2.24,14.18,23.32,5.97,6.24,21.66,2.00,11.96,10.12,224.00,7.00,19.67,15.75,372.00,7.00,4.75,4.20,88.00,8.00,18.12,15.30,374.00,9.00,3.37,2.42,64.00,5.00,0,휴식 (Relax)
-0.50,-2.81,2.25,4.81,-1.38,31.81,43.19,52.36,105.22,24.41,7.41,22.69,8.00,51.31,54.14,63.13,132.00,81.13,35.37,88.03,23.00,6.07,12.00,17.29,24.17,25.87,12.00,30.51,8.00,58.45,61.39,49.26,77.00,44.55,18.60,137.08,11.00,11.94,6.61,14.38,16.97,5.83,5.69,18.78,10.00,11.82,9.62,216.00,6.00,18.29,14.04,361.00,7.00,4.71,4.06,94.00,9.00,16.94,14.27,352.00,9.00,3.00,2.28,58.00,5.00,0,휴식 (Relax)
14.00,8.19,1.88,3.44,0.62,12.72,21.78,45.33,111.43,47.01,17.13,34.73,16.00,51.31,54.14,63.13,132.00,81.13,35.37,88.03,23.00,12.01,6.00,22.52,22.36,23.08,6.00,29.93,14.00,36.46,39.66,27.47,80.08,51.86,39.66,141.11,11.00,11.94,6.61,14.38,16.97,5.83,5.69,18.78,10.00,12.17,10.25,224.00,7.00,18.29,14.04,318.00,7.00,4.64,3.83,88.00,8.00,16.37,12.98,330.00,9.00,3.00,2.28,53.00,4.00,0,휴식 (Relax)
-3.00,15.12,-3.75,21.31,5.81,19.71,6.12,60.17,96.66,47.35,14.78,20.13,0.00,18.13,23.56,89.83,77.78,76.38,29.95,35.42,88.00,6.51,11.09,18.53,16.49,27.73,4.59,32.71,20.00,35.95,39.66,66.06,24.60,16.79,39.66,113.74,55.00,6.59,13.09,14.27,12.04,13.96,9.30,15.55,3.00,11.27,9.38,224.00,8.00,14.49,12.38,286.00,7.00,4.71,4.06,89.00,9.00,13.73,10.48,297.00,10.00,2.92,2.13,52.00,9.00,0,휴식 (Relax)
-3.00,24.06,-12.44,0.00,2.62,19.71,6.12,60.17,96.66,47.35,14.78,20.13,0.00,45.32,56.43,120.92,59.24,43.42,21.12,64.70,55.00,18.05,27.24,34.65,23.35,15.03,16.85,19.69,1.00,24.96,28.96,58.58,34.79,26.27,50.49,108.22,66.00,7.32,16.00,17.26,9.06,11.94,6.63,16.55,0.00,11.27,9.38,208.00,7.00,15.66,13.32,275.00,6.00,5.38,4.63,83.00,8.00,13.47,9.62,308.00,6.00,3.00,2.34,55.00,9.00,0,휴식 (Relax)
-17.00,-28.19,-2.75,-20.62,-2.25,12.48,30.19,79.63,68.82,39.62,19.20,51.83,32.00,32.26,37.60,124.48,24.60,46.32,64.44,108.67,11.00,13.09,25.71,31.03,20.25,19.46,20.37,16.96,6.00,8.54,26.39,71.70,34.79,34.63,41.51,125.90,44.00,7.48,15.03,16.72,9.49,13.06,6.49,18.06,2.00,11.62,9.25,216.00,7.00,16.94,14.44,319.00,7.00,5.08,4.28,82.00,7.00,14.49,11.52,319.00,9.00,3.05,2.44,57.00,9.00,0,휴식 (Relax)
7.00,4.81,13.56,22.69,-0.06,12.48,30.19,79.63,68.82,39.62,19.20,51.83,32.00,32.26,37.60,124.48,24.60,46.32,64.44,108.67,11.00,6.53,32.94,36.92,30.08,13.75,22.29,26.25,5.00,12.39,17.44,61.61,45.35,45.21,48.56,136.71,33.00,9.51,16.27,19.25,6.71,10.20,4.62,15.20,1.00,11.62,9.25,216.00,7.00,16.94,14.44,319.00,7.00,6.11,4.88,99.00,8.00,15.30,11.95,330.00,9.00,2.97,2.21,49.00,8.00,0,휴식 (Relax)
13.00,23.38,-3.06,-0.69,-0.50,23.32,47.93,86.99,46.65,32.66,32.10,39.67,0.00,29.62,17.55,107.92,49.19,63.85,80.42,81.44,66.00,7.25,26.96,31.25,28.44,18.95,27.99,32.25,11.00,29.50,4.56,66.43,55.00,47.20,26.56,115.33,55.00,3.56,9.72,14.34,11.66,12.09,3.09,8.22,8.00,11.27,9.38,200.00,6.00,16.44,13.92,319.00,7.00,6.13,4.94,111.00,9.00,14.27,10.57,319.00,9.00,2.35,1.94,44.00,8.00,0,휴식 (Relax)
5.00,11.00,-2.38,10.31,5.00,23.32,47.93,86.99,46.65,32.66,32.10,39.67,0.00,46.69,37.33,127.99,44.00,44.30,58.71,81.12,44.00,14.12,21.53,32.81,39.32,13.15,19.09,22.26,0.00,29.50,4.56,66.43,55.00,47.20,26.56,115.33,55.00,5.33,3.25,19.80,10.20,4.44,7.84,15.74,0.00,11.27,9.38,192.00,6.00,16.50,13.75,297.00,4.00,5.81,4.55,95.00,8.00,14.27,10.57,319.00,9.00,2.60,2.25,48.00,9.00,0,휴식 (Relax)
-16.50,-29.56,-7.38,-41.94,-9.44,21.65,39.05,81.59,43.08,36.58,34.10,31.76,40.00,45.25,49.99,97.58,99.00,76.81,33.62,84.94,11.00,14.12,21.53,32.81,39.32,13.15,19.09,22.26,0.00,42.50,44.24,63.87,88.68,48.24,51.39,142.63,11.00,6.29,8.32,12.79,19.10,10.44,16.52,23.57,9.00,10.76,8.62,192.00,6.00,17.27,14.87,308.00,6.00,5.81,4.55,95.00,8.00,17.91,13.84,374.00,9.00,3.55,2.67,60.00,9.00,0,휴식 (Relax)
-15.50,-58.19,13.56,-8.25,-0.25,37.60,53.55,97.04,28.84,21.82,18.24,35.18,24.00,95.44,103.94,141.75,112.77,43.10,32.16,100.21,43.00,19.17,7.37,29.25,56.22,9.09,13.99,31.27,17.00,53.10,53.23,74.82,83.77,37.33,49.91,138.67,22.00,9.23,9.92,14.43,19.65,8.48,15.02,21.60,6.00,11.48,9.62,176.00,6.00,22.81,18.66,340.00,6.00,6.75,5.31,111.00,8.00,18.03,14.44,407.00,9.00,3.49,2.47,66.00,8.00,0,휴식 (Relax)
7.00,16.44,-3.06,2.75,-2.12,16.88,33.05,85.07,46.65,34.43,13.69,55.40,0.00,73.71,90.31,125.49,132.50,62.18,41.79,118.82,65.00,13.85,13.23,23.64,56.01,14.92,12.12,34.16,23.00,53.10,53.23,74.82,83.77,37.33,49.91,138.67,22.00,11.19,9.94,16.37,17.72,7.55,14.46,22.22,8.00,10.91,9.12,192.00,7.00,23.17,19.17,405.00,7.00,6.77,5.32,122.00,8.00,18.03,14.44,396.00,9.00,3.53,2.55,66.00,8.00,0,휴식 (Relax)
21.00,14.38,-7.75,11.69,8.19,30.50,44.35,109.86,40.79,16.55,18.37,23.48,32.00,49.34,102.39,141.74,149.03,44.28,55.21,86.14,32.00,8.97,17.53,20.37,61.01,14.72,16.27,33.59,18.00,30.19,75.91,99.28,77.00,22.71,16.94,127.69,11.00,6.44,18.87,18.30,23.35,3.46,7.87,24.49,19.00,11.96,10.00,184.00,6.00,23.08,18.39,372.00,6.00,7.01,5.59,121.00,7.00,17.60,13.32,363.00,8.00,4.08,3.14,72.00,8.00,0,휴식 (Relax)
-17.00,4.06,-7.06,-8.25,-0.62,4.98,12.51,85.19,72.44,48.10,46.34,11.52,64.00,52.98,91.79,131.04,158.09,53.31,66.19,75.46,21.00,2.34,23.49,27.77,61.81,4.99,6.51,31.53,29.00,45.41,43.53,73.49,110.00,17.74,22.92,112.03,44.00,5.18,16.10,15.32,25.61,5.28,5.73,24.79,22.00,12.29,10.12,216.00,7.00,22.80,17.96,372.00,6.00,7.20,5.70,121.00,7.00,16.73,13.06,352.00,8.00,4.04,2.98,78.00,8.00,0,휴식 (Relax)
-84.88,-16.56,-29.81,-18.56,19.06,98.07,87.94,153.35,128.14,86.49,86.64,86.78,34.00,58.27,73.25,129.66,171.19,37.86,51.86,93.88,43.00,38.33,42.98,61.79,26.93,40.78,36.58,56.55,7.00,51.18,39.13,78.53,110.55,23.61,12.75,119.88,33.00,24.21,30.62,29.23,20.62,20.23,15.37,28.61,43.00,25.06,16.41,282.00,7.00,23.17,19.17,383.00,7.00,10.49,6.76,146.00,5.00,17.27,13.92,341.00,7.00,6.37,4.55,96.00,8.00,1,주먹 쥐기 (Fist)
-17.38,26.75,-22.88,-37.12,-1.75,120.19,107.34,173.15,116.36,69.21,64.04,65.61,10.00,58.88,75.58,119.47,179.81,44.91,55.39,101.05,54.00,68.04,57.94,73.77,32.65,41.76,31.73,26.25,24.00,84.00,81.38,133.18,56.09,34.26,59.51,70.78,88.00,21.29,29.96,29.78,17.72,20.85,17.51,29.27,46.00,25.42,17.45,340.00,6.00,23.81,19.69,394.00,7.00,11.93,8.41,145.00,5.00,19.40,15.98,330.00,6.00,6.38,4.53,112.00,8.00,1,주먹 쥐기 (Fist)
-8.88,24.00,18.06,90.81,-15.94,126.16,109.41,171.99,109.12,65.84,67.45,70.48,18.00,89.86,66.79,93.21,209.42,17.77,21.15,94.96,10.00,54.95,60.82,84.26,22.47,58.76,47.57,9.39,41.00,99.73,45.98,146.39,135.65,136.56,153.77,46.84,201.00,13.29,38.90,42.67,24.76,32.05,21.08,33.40,33.00,25.52,18.02,340.00,5.00,24.19,19.25,383.00,7.00,12.80,9.20,181.00,6.00,30.18,19.51,443.00,9.00,7.53,5.04,127.00,8.00,1,주먹 쥐기 (Fist)
104.62,-29.62,39.88,30.75,4.56,121.76,182.94,273.62,112.87,38.17,106.49,142.22,122.00,68.46,82.26,80.48,225.02,39.48,8.80,106.95,12.00,52.65,93.33,117.71,56.57,56.22,23.28,43.02,6.00,130.66,78.81,179.17,125.94,134.22,142.38,31.63,168.00,14.98,30.96,39.44,20.12,38.25,28.98,40.01,25.00,37.12,23.70,444.00,6.00,25.27,21.14,427.00,7.00,16.32,11.55,205.00,6.00,31.21,22.06,501.00,9.00,7.58,5.30,146.00,9.00,1,주먹 쥐기 (Fist)
9.12,13.69,48.94,71.81,-13.62,116.23,175.16,269.44,119.88,41.75,107.84,147.42,130.00,79.38,71.32,91.41,217.69,45.79,10.39,116.66,23.00,89.56,136.71,132.76,78.49,12.12,41.81,23.41,53.00,209.49,143.34,215.38,50.09,65.36,122.25,74.58,247.00,18.90,40.23,30.84,10.30,37.59,40.12,52.90,12.00,36.95,23.27,524.00,6.00,25.50,21.57,460.00,8.00,20.60,15.59,211.00,5.00,36.29,27.34,525.00,8.00,8.35,5.91,159.00,9.00,1,주먹 쥐기 (Fist)
56.44,24.00,-27.50,-66.75,-8.69,171.47,211.89,238.86,106.04,48.32,90.30,175.90,189.00,89.19,65.00,95.14,226.14,51.66,15.58,105.69,12.00,64.70,127.52,149.72,97.91,14.55,54.09,45.02,78.00,136.20,139.50,270.04,79.06,38.21,90.55,148.79,334.00,32.79,44.71,16.31,7.81,51.18,37.93,38.72,27.00,39.71,26.81,575.00,5.00,26.00,22.00,460.00,8.00,21.77,16.56,279.00,6.00,40.00,29.56,647.00,8.00,8.53,6.02,160.00,7.00,1,주먹 쥐기 (Fist)
-10.06,-47.25,12.81,-22.38,8.94,163.51,212.03,246.85,98.05,45.94,84.84,178.16,197.00,67.94,87.39,158.02,187.97,126.60,91.56,40.65,64.00,91.01,117.04,125.50,85.70,38.17,59.10,72.01,105.00,128.07,159.02,290.27,68.95,19.96,106.54,133.74,312.00,26.83,46.93,17.64,6.08,55.49,42.57,34.72,33.00,39.79,27.31,626.00,6.00,28.04,24.94,481.00,8.00,21.78,17.11,311.00,7.00,40.41,30.59,668.00,8.00,8.80,6.34,173.00,9.00,1,주먹 쥐기 (Fist)
-47.12,-15.94,34.25,94.81,-6.75,137.07,235.69,258.98,103.73,76.66,115.79,183.39,166.00,62.09,88.31,150.03,177.71,130.13,99.57,39.31,75.00,127.27,83.15,136.26,125.17,53.12,83.15,38.11,64.00,170.47,58.43,315.58,191.39,135.07,231.24,153.46,187.00,31.27,42.26,21.47,1.41,54.04,47.52,33.71,38.00,41.35,29.25,641.00,5.00,27.52,24.08,480.00,7.00,23.48,19.47,318.00,6.00,46.89,36.59,749.00,8.00,8.95,6.69,187.00,8.00,1,주먹 쥐기 (Fist)
81.00,68.88,-43.19,-77.12,17.12,190.93,158.62,315.92,39.45,132.85,181.32,238.63,88.00,43.95,147.61,186.17,165.00,184.56,116.11,62.77,8.00,96.46,140.09,79.29,125.40,108.13,140.09,57.63,7.00,166.31,94.90,218.58,224.72,201.98,305.09,240.21,90.00,23.34,59.26,11.38,17.03,36.32,60.23,42.13,56.00,46.29,34.12,766.00,6.00,32.73,27.22,547.00,8.00,25.86,20.86,382.00,6.00,50.82,39.41,905.00,8.00,9.99,7.97,212.00,11.00,1,주먹 쥐기 (Fist)
-41.50,23.88,7.12,50.38,4.75,169.63,195.65,268.59,29.73,136.80,206.95,293.01,32.00,43.95,147.61,186.17,165.00,184.56,116.11,62.77,8.00,96.49,132.84,83.75,114.73,110.93,147.80,68.26,4.00,140.07,101.86,244.82,179.88,197.24,320.45,296.19,34.00,25.56,62.39,17.05,17.72,40.04,59.87,36.95,50.00,47.43,35.81,884.00,7.00,32.73,27.22,581.00,8.00,25.91,21.23,433.00,7.00,52.45,43.08,1025.00,8.00,10.06,8.28,218.00,10.00,1,주먹 쥐기 (Fist)
-16.00,-48.06,23.31,-35.88,-18.69,174.86,198.32,274.92,22.36,156.32,212.68,269.41,56.00,89.63,138.44,193.76,177.71,211.84,69.22,82.21,73.00,91.20,138.67,68.77,125.24,134.44,150.09,39.84,25.00,172.03,63.12,271.65,154.05,158.75,305.06,336.90,10.00,17.04,71.59,19.79,42.30,36.87,79.38,13.07,25.00,47.58,36.12,884.00,6.00,34.85,30.18,613.00,8.00,26.58,22.56,446.00,7.00,53.25,44.47,1059.00,8.00,11.09,8.98,228.00,9.00,1,주먹 쥐기 (Fist)
62.75,-27.06,21.19,-26.25,-4.94,138.43,256.08,191.34,106.08,230.47,289.54,204.62,140.00,89.63,138.44,193.76,177.71,211.84,69.22,82.21,73.00,83.30,169.56,34.79,156.17,108.55,123.76,69.92,9.00,150.96,84.95,250.93,173.53,141.26,285.89,353.23,32.00,17.81,67.71,16.24,42.01,33.65,83.29,9.11,21.00,50.10,40.03,968.00,7.00,34.85,30.18,602.00,8.00,27.00,23.09,424.00,6.00,52.30,43.44,1037.00,8.00,10.93,8.70,233.00,8.00,1,주먹 쥐기 (Fist)
-13.75,-39.38,73.88,125.38,-22.44,134.20,264.04,187.55,106.68,230.63,282.30,207.62,132.00,69.87,117.54,184.63,186.53,208.52,52.04,61.27,52.00,82.98,234.68,62.77,145.42,102.91,192.75,50.76,60.00,12.24,213.78,287.75,172.66,172.43,432.73,315.91,118.00,18.53,89.23,27.02,18.03,17.27,98.51,15.24,3.00,49.92,39.59,1020.00,7.00,32.94,28.70,537.00,7.00,32.97,27.00,464.00,5.00,61.38,52.41,1187.00,7.00,12.37,10.19,250.00,8.00,1,주먹 쥐기 (Fist)
137.25,15.62,3.81,-34.25,-12.62,88.88,372.52,301.39,39.85,108.00,357.17,251.55,276.00,69.87,117.54,184.63,186.53,208.52,52.04,61.27,52.00,85.21,243.31,76.98,128.47,116.92,181.27,41.10,43.00,21.14,204.74,265.92,192.77,162.94,445.84,324.45,140.00,26.04,94.94,27.00,21.63,11.24,99.37,4.31,10.00,61.22,50.56,1164.00,10.00,32.94,28.70,592.00,8.00,32.84,26.41,528.00,5.00,61.91,53.44,1337.00,8.00,12.80,11.00,248.00,7.00,1,주먹 쥐기 (Fist)
33.62,15.62,-13.50,19.38,43.25,93.48,378.70,321.97,40.50,132.79,359.54,230.21,250.00,69.87,117.54,184.63,186.53,208.52,52.04,61.27,52.00,84.56,242.25,76.52,128.14,112.89,180.95,44.93,48.00,20.06,196.99,272.47,185.44,140.94,443.61,340.90,162.00,32.71,108.99,58.00,20.00,23.94,128.04,34.20,44.00,61.78,52.59,1226.00,9.00,32.94,28.70,581.00,8.00,32.69,26.06,545.00,6.00,62.11,54.83,1370.00,9.00,16.73,13.12,297.00,8.00,1,주먹 쥐기 (Fist)
-101.75,-26.31,-59.75,-140.88,5.88,123.53,419.93,347.06,112.87,159.48,420.54,159.49,176.00,77.24,94.20,187.35,216.27,201.79,63.41,54.51,19.00,112.35,280.04,118.98,84.21,130.99,151.20,88.14,92.00,108.80,312.37,373.90,74.97,146.99,358.60,460.51,286.00,38.29,114.86,61.91,24.08,23.40,122.30,28.45,38.00,66.62,56.06,1292.00,10.00,33.61,30.19,603.00,8.00,35.83,29.19,569.00,6.00,71.70,61.61,1527.00,10.00,16.80,13.52,313.00,8.00,1,주먹 쥐기 (Fist)
-54.88,-15.31,3.31,23.69,9.62,81.88,370.34,297.15,117.64,138.51,469.31,109.53,126.00,77.24,94.20,187.35,216.27,201.79,63.41,54.51,19.00,69.60,235.38,100.05,99.32,177.36,104.92,134.12,139.00,66.27,265.15,332.48,119.85,201.81,304.32,514.85,341.00,26.31,105.06,67.80,33.29,34.90,117.28,20.92,26.00,62.83,53.72,1276.00,10.00,33.61,30.19,570.00,7.00,34.26,26.27,630.00,7.00,71.60,61.56,1673.00,11.00,16.10,12.75,295.00,8.00,1,주먹 쥐기 (Fist)
-23.88,28.69,-15.25,8.56,9.06,67.04,357.73,292.40,132.97,154.41,460.80,124.20,142.00,77.24,94.20,187.35,216.27,201.79,63.41,54.51,19.00,45.09,225.89,121.50,79.31,172.83,126.63,113.73,114.00,80.67,260.48,362.09,107.67,191.40,360.44,459.46,275.00,34.61,106.67,59.00,29.41,40.84,121.06,22.12,17.00,62.33,52.97,1300.00,10.00,33.61,30.19,614.00,8.00,33.01,24.31,605.00,7.00,70.30,58.51,1549.00,10.00,16.27,13.31,280.00,7.00,1,주먹 쥐기 (Fist)
-9.38,39.00,-3.88,12.88,-18.69,43.06,355.94,311.59,128.56,144.47,455.70,108.40,118.00,85.03,96.11,193.45,212.08,207.46,66.21,65.08,8.00,51.04,223.36,116.96,83.44,178.10,128.63,110.98,108.00,40.43,214.07,294.12,176.41,256.72,385.34,426.50,206.00,31.76,108.86,59.78,25.63,39.57,124.86,24.98,13.00,61.83,51.84,1196.00,9.00,34.30,30.88,570.00,7.00,33.02,24.52,592.00,7.00,67.47,54.73,1491.00,10.00,16.53,13.56,287.00,7.00,1,주먹 쥐기 (Fist)
61.31,45.19,-6.69,55.75,-4.00,69.10,338.23,289.02,155.46,165.33,433.64,105.15,91.00,159.64,85.87,269.13,142.89,132.26,121.31,15.33,85.00,83.24,191.04,132.64,63.69,152.74,146.52,118.36,143.00,62.40,247.69,302.73,177.37,279.21,375.67,426.66,172.00,29.77,119.68,51.25,24.08,50.51,115.20,14.98,24.00,59.78,49.73,1169.00,9.00,35.55,31.71,537.00,6.00,32.37,23.44,585.00,7.00,68.71,56.59,1490.00,10.00,16.48,13.38,282.00,6.00,1,주먹 쥐기 (Fist)
15.75,-29.06,-23.44,-47.56,17.06,50.53,363.12,284.76,159.35,187.17,408.95,117.15,66.00,116.99,112.92,262.35,125.16,134.26,164.13,59.05,129.00,142.10,129.55,199.79,25.63,137.97,79.80,138.42,75.00,64.21,166.82,404.44,57.38,256.55,277.46,491.51,49.00,33.84,95.98,80.47,7.28,70.50,111.22,16.44,55.00,59.89,50.53,1162.00,8.00,36.20,32.94,603.00,7.00,31.24,22.76,528.00,8.00,67.57,55.81,1457.00,10.00,16.77,13.81,301.00,7.00,1,주먹 쥐기 (Fist)
-65.12,5.31,-38.12,-68.56,31.31,137.34,284.82,395.92,55.23,211.03,354.77,221.47,48.00,100.90,134.91,282.19,104.04,112.70,153.06,38.96,107.00,145.70,128.43,201.16,30.36,142.57,84.17,134.42,80.00,64.21,166.82,404.44,57.38,256.55,277.46,491.51,49.00,61.27,106.13,96.36,46.53,93.30,85.59,31.18,11.00,61.26,50.66,1183.00,8.00,35.60,31.56,560.00,7.00,31.60,23.11,501.00,7.00,67.57,55.81,1435.00,10.00,18.44,14.98,300.00,6.00,1,주먹 쥐기 (Fist)
-101.56,-8.38,-11.75,-4.94,-9.69,211.25,312.07,451.01,132.50,276.42,328.08,133.18,41.00,122.70,110.16,252.37,99.61,94.85,171.48,36.38,64.00,155.99,141.69,184.59,31.78,127.90,80.60,155.78,58.00,55.96,147.48,411.06,38.01,273.22,293.20,469.68,71.00,53.72,91.23,106.03,51.43,108.37,70.85,47.11,5.00,66.47,55.26,1186.00,8.00,33.37,28.88,539.00,8.00,31.66,23.38,502.00,7.00,67.26,54.44,1375.00,9.00,18.56,15.31,326.00,6.00,1,주먹 쥐기 (Fist)
23.44,53.75,-13.56,42.75,-5.00,169.71,237.97,489.82,131.90,347.17,266.37,77.72,121.00,163.59,153.94,296.07,23.71,55.28,97.04,52.83,142.00,171.56,192.58,139.63,25.55,112.18,58.80,105.84,109.00,73.47,205.13,352.19,48.27,262.44,301.29,413.07,130.00,53.81,95.89,101.29,47.01,108.87,66.16,51.62,10.00,65.41,54.01,1183.00,8.00,35.80,31.00,517.00,6.00,30.60,22.19,426.00,6.00,63.28,50.75,1241.00,9.00,18.44,15.00,306.00,5.00,1,주먹 쥐기 (Fist)
3.31,-59.00,15.50,-5.94,-1.88,184.04,312.59,413.44,61.85,353.07,188.37,107.48,199.00,167.98,22.67,175.45,144.53,84.21,55.08,172.87,274.00,179.00,151.58,142.58,79.12,54.86,42.66,66.96,172.00,86.20,173.86,391.56,112.27,192.65,269.77,358.85,205.00,62.01,90.01,103.93,41.30,93.62,61.18,65.27,28.00,62.36,48.94,1082.00,7.00,35.13,30.88,593.00,9.00,28.74,20.38,408.00,6.00,60.16,46.06,1154.00,9.00,18.03,14.11,296.00,5.00,1,주먹 쥐기 (Fist)
-22.19,-2.94,-6.81,-33.38,-15.56,185.45,301.20,418.18,50.29,333.24,172.37,129.81,223.00,193.67,29.52,183.58,143.50,86.43,22.32,147.15,241.00,172.22,149.50,151.40,76.79,45.87,40.38,68.52,183.00,47.17,148.73,444.04,118.07,140.18,194.89,339.21,294.00,80.49,102.49,87.78,20.62,111.89,51.40,56.89,7.00,61.56,47.44,1082.00,8.00,34.38,29.18,571.00,8.00,28.78,20.54,413.00,7.00,59.38,44.67,1098.00,8.00,18.44,14.58,286.00,4.00,1,주먹 쥐기 (Fist)
31.25,25.31,0.62,7.88,-1.75,219.26,323.95,373.27,17.49,382.75,175.72,72.95,166.00,120.94,46.54,107.78,219.33,162.07,66.12,134.28,165.00,152.93,131.64,171.33,99.61,45.11,59.75,58.36,160.00,66.51,182.69,402.54,80.92,174.10,151.18,354.57,338.00,61.50,83.54,105.47,24.41,112.09,35.57,62.56,12.00,61.82,48.22,1055.00,8.00,32.93,28.19,583.00,9.00,28.20,19.00,419.00,8.00,58.79,43.25,1131.00,9.00,17.74,13.69,287.00,4.00,1,주먹 쥐기 (Fist)
-20.50,-49.38,29.25,-25.12,-18.00,147.34,244.72,449.80,69.58,384.61,148.90,39.31,82.00,141.93,34.36,119.07,219.18,172.48,85.13,145.49,144.00,158.79,137.64,172.00,99.13,40.37,65.45,54.79,154.00,66.51,182.69,402.54,80.92,174.10,151.18,354.57,338.00,72.91,92.99,105.51,34.93,101.64,23.61,71.97,24.00,60.19,45.75,1036.00,8.00,34.47,29.50,648.00,10.00,28.55,19.38,391.00,8.00,58.79,43.25,1003.00,9.00,18.26,14.25,285.00,4.00,1,주먹 쥐기 (Fist)
25.94,-59.06,49.31,26.19,-10.94,187.06,283.02,451.33,76.06,349.72,121.11,75.99,41.00,161.43,46.71,109.87,240.17,185.24,79.30,128.09,165.00,126.45,118.01,140.40,66.19,18.71,85.95,32.78,121.00,50.49,150.43,300.13,75.69,226.47,178.78,249.10,221.00,61.99,91.77,91.46,32.02,90.01,18.23,86.66,39.00,60.48,46.43,925.00,8.00,36.29,30.81,604.00,9.00,23.41,17.31,340.00,8.00,47.66,36.98,886.00,9.00,17.31,13.55,284.00,4.00,1,주먹 쥐기 (Fist)
40.88,37.56,3.00,2.81,-0.06,79.93,255.43,347.27,52.80,265.20,21.01,186.88,70.00,146.08,24.74,131.86,241.99,206.33,93.95,106.89,187.00,117.64,121.27,133.43,66.27,10.93,86.15,41.33,132.00,31.34,134.38,318.69,62.65,247.44,175.54,227.36,199.00,58.44,105.27,79.86,50.01,85.68,13.87,69.15,21.00,48.67,40.36,831.00,8.00,37.31,32.19,702.00,10.00,23.17,16.62,370.00,7.00,47.44,35.62,853.00,8.00,16.75,12.70,238.00,3.00,1,주먹 쥐기 (Fist)
10.50,5.25,-12.38,-56.06,-5.06,59.02,285.46,318.48,85.09,250.25,62.09,149.55,28.00,149.97,32.98,127.85,231.09,207.91,104.94,95.95,198.00,113.12,130.39,138.71,76.24,20.92,78.79,31.59,122.00,116.58,232.37,347.58,52.43,275.12,118.69,133.85,101.00,61.88,57.91,67.86,70.01,40.96,44.36,42.67,27.00,47.01,38.06,724.00,7.00,37.12,31.50,691.00,9.00,23.37,17.25,337.00,8.00,48.73,38.80,750.00,8.00,13.26,9.95,209.00,5.00,1,주먹 쥐기 (Fist)
-18.12,-27.75,-10.12,-20.12,17.19,86.97,211.67,292.51,137.59,176.84,128.70,120.81,46.00,149.97,32.98,127.85,231.09,207.91,104.94,95.95,198.00,122.90,90.94,95.91,90.97,54.84,34.79,13.34,78.00,71.14,170.75,234.75,149.33,218.34,54.69,97.11,12.00,62.05,65.12,78.73,62.01,32.07,51.16,46.89,39.00,41.49,32.86,698.00,8.00,37.12,31.50,713.00,10.00,19.42,14.50,276.00,7.00,36.63,29.97,625.00,7.00,13.90,10.89,229.00,6.00,1,주먹 쥐기 (Fist)
-27.12,-6.44,23.12,34.88,-2.12,94.95,201.75,276.70,146.82,185.61,122.09,117.65,30.00,154.49,40.27,118.06,220.19,217.00,105.85,103.20,187.00,123.61,88.99,95.34,101.21,55.82,44.10,1.66,90.00,71.14,170.75,234.75,149.33,218.34,54.69,97.11,12.00,57.55,66.75,71.27,53.74,38.26,51.43,55.79,50.00,40.65,31.73,674.00,8.00,36.91,30.81,691.00,9.00,20.09,15.25,293.00,7.00,36.63,29.97,669.00,8.00,13.75,10.30,249.00,7.00,1,주먹 쥐기 (Fist)
11.38,5.94,-5.88,-7.06,-8.00,102.54,206.64,264.91,128.70,199.42,114.46,131.34,54.00,138.75,18.32,117.91,218.19,213.88,124.07,113.00,165.00,123.61,88.99,95.34,101.21,55.82,44.10,1.66,90.00,45.51,139.79,211.05,181.18,235.17,87.50,72.04,21.00,47.50,82.59,81.29,42.94,22.01,63.99,38.20,32.00,40.65,31.47,698.00,8.00,36.29,29.44,691.00,10.00,20.09,15.25,311.00,7.00,36.16,29.30,713.00,9.00,13.72,10.00,228.00,9.00,1,주먹 쥐기 (Fist)
18.38,-52.94,50.12,15.62,-14.25,104.46,220.64,275.54,118.07,184.05,128.30,117.50,38.00,64.76,87.61,54.79,120.34,308.84,37.29,137.42,263.00,100.72,136.84,133.29,64.03,91.79,43.48,47.84,138.00,36.20,129.70,200.77,184.10,241.39,79.41,82.07,10.00,50.54,78.84,77.47,39.45,23.16,67.97,34.24,28.00,40.92,32.22,637.00,8.00,37.46,30.33,745.00,9.00,23.86,19.33,365.00,7.00,35.76,28.70,690.00,10.00,13.42,9.81,220.00,9.00,1,주먹 쥐기 (Fist)
37.62,14.81,7.44,29.44,-4.25,116.94,186.54,242.11,92.80,184.02,163.11,82.21,2.00,43.57,126.00,17.13,131.18,286.31,53.58,102.67,219.00,94.10,145.28,132.13,72.95,93.90,47.08,37.74,127.00,13.22,121.41,204.96,141.69,197.80,91.09,37.07,55.00,50.54,78.84,77.47,39.45,23.16,67.97,34.24,28.00,37.80,30.53,610.00,8.00,34.76,28.27,733.00,9.00,23.92,19.83,386.00,7.00,31.54,26.24,590.00,9.00,13.42,9.81,207.00,8.00,1,주먹 쥐기 (Fist)
37.12,75.56,-51.75,-75.00,21.56,110.81,190.01,242.13,99.30,191.68,167.48,74.31,6.00,126.38,129.65,116.97,56.65,359.31,114.62,39.35,119.00,119.44,144.90,159.85,61.98,122.68,75.06,28.74,98.00,48.25,153.05,245.35,131.64,206.55,109.52,76.61,14.00,53.52,79.95,80.14,42.06,24.51,67.78,32.55,25.00,38.24,30.91,522.00,7.00,39.58,30.81,767.00,10.00,26.66,21.19,432.00,8.00,35.78,29.12,676.00,10.00,13.70,10.05,216.00,9.00,1,주먹 쥐기 (Fist)
-78.56,8.56,-28.38,5.94,22.44,130.87,197.57,261.51,112.49,205.48,164.85,57.66,27.00,126.38,129.65,116.97,56.65,359.31,114.62,39.35,119.00,109.45,137.39,153.90,52.17,127.78,83.62,34.94,88.00,39.10,89.99,218.48,67.27,162.64,174.10,135.80,51.00,41.69,67.20,70.20,37.48,19.46,58.22,33.21,11.00,40.53,32.55,597.00,8.00,39.58,30.81,823.00,9.00,25.87,20.72,431.00,8.00,32.88,25.30,696.00,10.00,11.70,8.95,174.00,8.00,1,주먹 쥐기 (Fist)
-73.31,-33.38,-3.06,68.75,12.25,103.11,171.73,242.81,94.05,195.69,145.05,52.87,55.00,98.22,100.69,142.64,54.57,365.17,133.27,64.99,152.00,99.13,126.40,160.08,51.00,134.38,81.33,25.12,99.00,103.74,84.75,273.61,85.28,228.59,129.96,95.27,16.00,53.85,85.45,64.14,18.97,6.62,39.42,47.23,8.00,36.61,30.36,474.00,7.00,40.50,32.88,800.00,9.00,25.65,20.20,452.00,8.00,37.34,28.44,719.00,10.00,12.03,9.59,178.00,8.00,1,주먹 쥐기 (Fist)
44.62,55.38,-19.06,-16.12,2.94,88.97,155.93,251.24,108.41,212.60,162.02,47.50,38.00,92.54,98.87,152.85,66.29,353.35,121.31,53.08,140.00,99.13,126.40,160.08,51.00,134.38,81.33,25.12,99.00,42.32,39.25,224.50,54.00,252.77,159.48,115.94,82.00,56.19,88.11,59.25,18.03,11.27,43.62,42.34,3.00,37.66,31.16,568.00,8.00,39.36,32.22,767.00,9.00,25.65,20.20,435.00,7.00,35.66,27.36,764.00,11.00,12.05,9.70,185.00,5.00,1,주먹 쥐기 (Fist)
-4.88,17.62,-26.38,-83.19,2.75,93.33,159.13,243.34,104.65,216.46,168.08,43.86,30.00,122.31,77.15,179.90,110.21,318.98,79.87,28.27,64.00,122.89,131.72,158.96,66.71,136.54,39.27,67.72,56.00,80.08,64.41,278.04,149.00,321.01,66.31,62.78,13.00,56.67,87.56,57.57,21.02,9.68,43.00,45.30,6.00,37.67,31.39,594.00,8.00,37.12,29.58,746.00,9.00,26.30,20.14,422.00,6.00,41.60,32.66,804.00,8.00,12.07,9.91,170.00,5.00,1,주먹 쥐기 (Fist)
-49.94,-35.31,26.44,51.00,-1.19,104.54,151.28,238.15,133.20,236.72,168.14,69.33,61.00,116.19,99.96,147.54,94.58,343.69,101.62,61.17,31.00,115.77,151.56,125.74,45.88,171.07,18.21,100.12,21.00,5.98,74.76,207.58,167.72,389.78,35.55,76.27,90.00,55.58,75.84,67.25,26.40,11.02,36.52,33.45,9.00,39.45,33.57,584.00,7.00,38.21,31.90,768.00,9.00,27.12,22.08,471.00,7.00,43.29,34.12,899.00,10.00,11.41,9.09,158.00,6.00,1,주먹 쥐기 (Fist)
30.56,72.88,-45.69,-23.25,7.25,105.80,144.88,245.21,136.17,229.28,162.05,61.35,53.00,109.52,55.41,161.56,54.41,384.05,146.55,104.67,14.00,109.67,105.79,160.76,16.28,198.65,60.38,138.34,25.00,48.83,31.19,208.21,130.21,391.06,78.94,99.77,134.00,53.33,66.86,75.63,20.00,16.20,44.57,37.80,0.00,39.02,33.13,607.00,7.00,41.85,34.36,803.00,9.00,29.57,24.31,517.00,9.00,43.46,34.62,943.00,10.00,11.56,9.50,150.00,7.00,1,주먹 쥐기 (Fist)
-33.44,2.50,-8.19,29.00,2.81,103.85,129.02,257.69,121.64,229.99,178.02,76.73,69.00,104.72,51.30,132.06,49.19,389.88,117.08,66.88,40.00,104.28,78.30,157.20,24.19,218.66,34.45,117.08,15.00,15.39,72.29,247.49,110.06,352.58,116.60,122.78,178.00,45.42,54.37,79.96,13.89,11.31,24.54,39.75,23.00,39.68,34.26,623.00,7.00,39.97,30.88,859.00,9.00,28.66,22.84,534.00,9.00,43.99,35.50,954.00,10.00,10.53,8.48,145.00,5.00,1,주먹 쥐기 (Fist)
-21.88,-52.19,38.56,49.62,-15.94,94.90,105.17,248.98,109.04,281.95,146.40,46.08,12.00,102.83,61.84,121.07,59.24,379.14,113.34,69.11,29.00,100.92,81.54,146.37,25.63,206.95,30.95,118.04,3.00,29.65,85.89,263.98,89.32,370.42,111.01,117.75,156.00,47.51,53.01,82.99,10.63,14.99,24.57,42.64,27.00,39.24,34.14,623.00,7.00,38.97,30.02,815.00,9.00,27.48,21.99,533.00,10.00,45.20,36.70,954.00,10.00,10.85,8.70,152.00,7.00,1,주먹 쥐기 (Fist)
60.00,14.19,78.56,230.62,-16.81,100.98,96.33,265.95,91.05,294.80,153.53,54.11,6.00,115.24,44.12,130.62,70.43,366.90,94.42,70.18,7.00,161.12,35.34,213.36,104.39,209.04,58.97,124.22,77.00,269.40,253.79,299.13,285.34,482.30,197.00,239.51,396.00,63.26,37.91,99.28,26.25,22.89,15.78,26.33,9.00,40.69,35.12,673.00,8.00,38.09,28.98,847.00,10.00,34.14,27.80,562.00,7.00,74.74,51.00,1085.00,9.00,11.69,9.81,146.00,6.00,1,주먹 쥐기 (Fist)
181.50,122.25,-31.50,-74.38,-6.81,266.98,99.30,411.34,207.97,398.92,62.09,141.10,178.00,60.75,135.08,230.89,84.38,452.05,38.82,133.26,120.00,146.29,45.59,214.98,104.17,223.82,66.91,125.36,92.00,269.40,253.79,299.13,285.34,482.30,197.00,239.51,396.00,63.26,37.91,99.28,26.25,22.89,15.78,26.33,9.00,62.02,46.50,782.00,7.00,49.46,37.31,930.00,7.00,34.81,28.50,668.00,8.00,74.74,51.00,1347.00,10.00,11.69,9.81,133.00,5.00,1,주먹 쥐기 (Fist)
3.50,3.50,-6.81,-31.38,13.38,298.73,116.69,408.92,223.83,369.87,73.13,116.06,146.00,76.59,159.31,265.77,113.70,412.91,13.39,112.90,76.00,151.16,40.62,210.14,99.18,226.50,66.45,124.19,97.00,269.40,253.79,299.13,285.34,482.30,197.00,239.51,396.00,66.08,36.06,96.51,23.41,22.87,12.79,23.42,6.00,61.65,44.94,950.00,7.00,48.50,35.69,1024.00,7.00,34.72,28.27,659.00,7.00,74.74,51.00,1335.00,9.00,11.45,9.62,133.00,5.00,1,주먹 쥐기 (Fist)
-85.25,-49.44,0.62,13.31,-1.75,254.65,131.99,458.02,268.79,376.43,124.41,105.84,94.00,75.09,165.31,274.57,137.00,417.69,46.11,120.07,43.00,133.12,57.89,224.78,100.45,214.26,51.66,112.59,120.00,265.24,263.78,301.26,288.73,472.45,186.56,238.63,407.00,64.61,35.81,97.94,24.17,21.09,11.57,21.84,4.00,64.78,48.59,1002.00,7.00,49.93,37.49,1068.00,8.00,34.25,26.55,636.00,9.00,74.57,50.31,1335.00,9.00,11.42,9.50,141.00,6.00,1,주먹 쥐기 (Fist)
-8.25,-36.38,-10.06,-30.00,11.75,246.42,147.39,468.59,276.48,360.76,112.18,100.20,110.00,96.91,194.87,307.51,160.21,385.46,30.30,100.57,76.00,130.99,59.12,222.66,95.52,219.23,56.53,116.34,115.00,265.72,274.10,292.28,278.35,480.83,196.49,243.61,396.00,58.88,22.96,91.94,10.20,42.48,24.51,39.25,28.00,64.79,48.75,1070.00,7.00,50.78,39.30,1014.00,8.00,34.32,26.82,588.00,9.00,74.80,51.00,1357.00,9.00,11.49,9.53,150.00,7.00,1,주먹 쥐기 (Fist)
-29.25,-7.44,-10.75,-68.25,-10.75,245.36,190.44,450.12,236.22,389.82,123.77,135.60,62.00,40.69,136.10,285.29,208.66,351.78,88.08,64.14,141.00,146.22,66.17,153.72,107.42,211.40,36.69,55.02,184.00,306.94,313.89,231.00,262.62,508.79,184.55,191.04,472.00,62.05,17.11,84.24,2.83,42.65,23.39,34.90,20.00,65.10,49.41,1077.00,7.00,47.65,35.74,982.00,8.00,31.49,23.31,551.00,9.00,76.85,54.78,1389.00,9.00,10.84,9.09,162.00,8.00,1,주먹 쥐기 (Fist)
-25.19,-17.75,-4.38,-12.19,-5.94,280.77,223.24,385.20,204.83,423.65,158.19,73.54,127.00,50.81,139.24,276.52,202.48,359.05,97.76,58.56,152.00,163.44,67.20,147.81,127.12,190.84,15.48,76.22,162.00,336.32,311.41,243.76,295.55,475.84,161.76,219.86,439.00,64.36,14.13,82.38,2.24,39.77,21.31,35.29,23.00,64.77,47.98,1077.00,7.00,47.84,36.34,926.00,7.00,31.23,22.22,495.00,8.00,76.76,53.98,1336.00,8.00,10.71,8.93,141.00,7.00,1,주먹 쥐기 (Fist)
-6.12,-12.88,53.19,158.50,-9.19,324.59,222.48,366.70,251.15,376.01,109.25,122.53,78.00,128.79,125.97,212.30,271.30,286.73,104.36,127.85,74.00,67.70,150.45,84.97,193.60,139.55,88.72,178.63,59.00,77.21,531.57,24.24,382.20,461.52,101.12,480.49,178.00,38.33,40.18,72.54,26.02,30.76,6.89,39.98,51.00,63.97,45.39,976.00,8.00,45.36,32.47,859.00,6.00,32.22,24.77,535.00,9.00,84.09,61.56,1438.00,9.00,10.05,8.31,146.00,7.00,1,주먹 쥐기 (Fist)
77.75,39.38,-25.81,-48.44,-2.75,162.81,348.80,266.99,255.62,387.72,108.17,279.50,84.00,90.07,156.70,203.32,256.63,291.81,146.86,171.74,30.00,67.70,150.45,84.97,193.60,139.55,88.72,178.63,59.00,109.98,500.93,14.94,357.34,494.11,123.56,511.55,145.00,15.64,56.06,50.26,35.38,11.23,20.13,43.25,28.00,64.25,48.31,1063.00,7.00,46.48,35.33,870.00,7.00,32.22,24.77,588.00,9.00,84.90,63.37,1580.00,9.00,8.82,7.22,142.00,7.00,1,주먹 쥐기 (Fist)
-5.06,2.94,-19.50,-21.56,14.06,92.95,423.48,190.12,328.99,311.29,31.51,217.93,7.00,75.71,211.52,151.47,310.10,238.18,104.65,124.70,85.00,88.42,143.89,97.66,210.79,122.31,89.88,165.61,80.00,182.51,476.52,91.78,414.35,458.51,141.74,456.22,223.00,18.61,55.73,52.24,37.64,8.32,22.81,45.47,25.00,61.09,44.70,1022.00,7.00,44.76,32.69,815.00,6.00,32.62,25.56,577.00,8.00,84.03,60.58,1513.00,8.00,9.09,7.43,150.00,8.00,1,주먹 쥐기 (Fist)
-47.44,5.00,-42.62,-62.56,10.50,161.54,383.10,234.86,363.56,277.05,76.44,197.71,83.00,67.51,191.48,176.44,304.79,220.04,111.76,111.78,118.00,115.24,161.30,89.11,228.67,118.14,67.58,174.83,50.00,208.35,493.85,106.40,435.29,436.64,111.22,467.79,191.00,26.83,61.91,49.11,43.93,12.93,21.42,37.05,34.00,61.58,43.67,1020.00,6.00,43.80,30.62,782.00,6.00,34.22,26.73,592.00,8.00,85.15,62.08,1483.00,8.00,9.47,8.06,153.00,8.00,1,주먹 쥐기 (Fist)
-37.44,-36.25,40.19,70.81,-6.00,183.38,397.30,221.85,391.77,252.03,49.42,188.07,51.00,64.15,204.81,170.66,348.57,196.26,73.83,115.01,74.00,83.40,94.75,154.80,283.49,61.11,5.77,187.38,17.00,186.07,312.95,259.03,586.08,267.91,97.56,504.97,5.00,21.59,53.92,57.06,49.58,13.03,27.88,29.05,42.00,62.30,45.17,981.00,6.00,44.78,32.41,771.00,6.00,35.28,29.24,624.00,6.00,82.89,62.21,1489.00,8.00,9.59,8.25,167.00,8.00,1,주먹 쥐기 (Fist)
46.94,14.62,-9.31,-48.38,-2.88,169.89,297.24,327.80,449.95,164.38,114.02,153.28,55.00,97.60,145.36,233.09,348.57,130.63,11.38,125.21,8.00,83.96,129.16,138.46,265.11,28.28,35.90,190.64,57.00,143.20,382.62,214.29,551.49,291.03,172.89,510.32,72.00,21.31,52.57,58.04,50.93,14.59,25.94,30.92,40.00,62.01,46.58,992.00,6.00,43.25,30.62,715.00,6.00,34.60,27.18,601.00,8.00,83.60,62.84,1536.00,8.00,9.61,8.34,161.00,7.00,1,주먹 쥐기 (Fist)
