a0,a1,a2,a3,a4,a0_f1,a0_f2,a0_f3,a0_f4,a0_f5,a0_f6,a0_f7,a0_f8,a1_f1,a1_f2,a1_f3,a1_f4,a1_f5,a1_f6,a1_f7,a1_f8,a2_f1,a2_f2,a2_f3,a2_f4,a2_f5,a2_f6,a2_f7,a2_f8,a3_f1,a3_f2,a3_f3,a3_f4,a3_f5,a3_f6,a3_f7,a3_f8,a4_f1,a4_f2,a4_f3,a4_f4,a4_f5,a4_f6,a4_f7,a4_f8,label,action_name
312.00,583.00,140.00,594.00,39.00,0.00,0.00,0.00,0.00,0.00,0.00,0.00,0.00,0.00,0.00,0.00,0.00,0.00,0.00,0.00,0.00,0.00,0.00,0.00,0.00,0.00,0.00,0.00,0.00,0.00,0.00,0.00,0.00,0.00,0.00,0.00,0.00,0.00,0.00,0.00,0.00,0.00,0.00,0.00,0.00,0,휴식 (Relax)
320.00,616.00,151.00,638.00,39.00,8.00,8.00,8.00,8.00,8.00,8.00,8.00,8.00,33.00,33.00,33.00,33.00,33.00,33.00,33.00,33.00,11.00,11.00,11.00,11.00,11.00,11.00,11.00,11.00,44.00,44.00,44.00,44.00,44.00,44.00,44.00,44.00,0.00,0.00,0.00,0.00,0.00,0.00,0.00,0.00,0,휴식 (Relax)
336.00,616.00,156.00,616.00,31.00,31.54,30.19,28.05,25.30,22.20,19.20,16.89,16.00,64.73,60.98,54.88,46.67,36.67,25.26,12.88,0.00,26.50,25.02,22.62,19.42,15.57,11.32,7.20,5.00,64.87,61.55,56.22,49.19,40.98,32.42,25.13,22.00,8.00,8.00,8.00,8.00,8.00,8.00,8.00,8.00,0,휴식 (Relax)
312.00,551.00,145.00,551.00,26.00,31.54,30.19,28.05,25.30,22.20,19.20,16.89,16.00,42.07,57.00,68.71,72.90,68.34,56.17,40.59,32.00,30.87,27.64,22.81,17.09,11.33,6.32,2.60,0.00,40.42,65.58,83.44,89.74,83.23,65.10,39.40,21.00,20.62,19.50,17.68,15.26,12.39,9.27,6.39,5.00,0,휴식 (Relax)
312.00,572.00,130.00,551.00,33.00,31.54,30.19,28.05,25.30,22.20,19.20,16.89,16.00,41.83,66.19,79.34,78.49,66.06,47.59,29.71,21.00,25.49,30.80,31.80,26.68,17.02,7.42,7.55,10.00,64.14,106.96,122.72,108.60,72.14,28.22,9.77,22.00,25.95,22.94,18.45,13.15,7.86,3.41,0.77,1.00,0,휴식 (Relax)
320.00,594.00,151.00,638.00,39.00,34.72,24.00,22.28,28.84,30.20,24.00,14.22,8.00,37.78,55.60,78.43,87.82,75.81,48.42,21.25,10.00,27.93,20.58,25.40,31.06,27.24,18.40,18.01,21.00,24.88,73.89,128.20,146.24,114.25,53.90,45.94,66.00,25.95,22.94,18.45,13.15,7.86,3.41,0.77,1.00,0,휴식 (Relax)
336.00,616.00,162.00,616.00,28.00,44.60,0.00,39.67,50.60,31.40,0.00,23.88,32.00,32.12,49.69,109.52,108.19,55.75,28.09,44.70,43.00,36.04,6.92,43.24,50.92,33.29,16.56,12.29,1.00,9.41,79.45,150.11,157.26,102.94,32.91,30.55,44.00,31.57,16.41,10.19,18.38,18.81,12.60,10.27,12.00,0,휴식 (Relax)
320.00,561.00,140.00,551.00,24.00,47.55,8.00,46.26,48.66,23.42,8.00,20.66,24.00,40.00,34.68,97.21,124.63,72.47,14.39,61.38,65.00,36.04,6.92,43.24,50.92,33.29,16.56,12.29,1.00,48.26,43.00,135.99,194.54,135.40,43.00,48.90,1.00,38.78,6.37,22.60,30.87,19.92,7.58,6.97,3.00,0,휴식 (Relax)
312.00,561.00,130.00,540.00,33.00,47.55,8.00,46.26,48.66,23.42,8.00,20.66,24.00,59.96,14.39,112.28,139.30,55.33,34.68,52.34,43.00,38.36,4.31,47.43,60.44,33.14,10.17,2.99,9.00,101.64,11.00,183.54,223.96,94.73,11.00,14.90,55.00,40.89,4.64,27.09,28.86,13.95,2.12,1.85,3.00,0,휴식 (Relax)
312.00,583.00,151.00,616.00,42.00,47.55,8.00,46.26,48.66,23.42,8.00,20.66,24.00,59.96,14.39,112.28,139.30,55.33,34.68,52.34,43.00,31.84,6.80,36.56,64.40,43.86,17.83,8.32,20.00,82.96,16.21,168.26,241.45,106.97,30.78,27.66,77.00,40.89,6.57,28.00,31.78,13.41,0.89,2.08,6.00,0,휴식 (Relax)
328.00,616.00,156.00,638.00,36.00,38.90,11.79,39.11,64.50,11.59,22.38,12.29,40.00,33.15,43.08,118.40,164.40,22.33,41.61,45.07,76.00,21.80,21.73,36.67,79.12,37.47,4.44,9.78,4.00,70.54,59.73,191.78,269.52,65.94,38.91,36.10,33.00,39.73,3.61,25.00,32.57,16.14,3.61,4.42,9.00,0,휴식 (Relax)
352.00,627.00,145.00,605.00,26.00,29.69,44.77,74.59,71.55,33.32,23.58,46.61,0.00,46.42,75.17,162.33,142.62,56.09,7.06,70.74,32.00,18.51,24.86,41.61,77.49,33.51,4.90,4.80,9.00,75.48,67.41,202.39,261.63,65.95,27.92,25.73,44.00,32.26,11.40,22.84,45.12,11.67,11.40,10.46,4.00,0,휴식 (Relax)
320.00,561.00,140.00,540.00,28.00,30.96,49.30,80.14,64.50,33.23,16.06,38.72,8.00,26.92,72.64,154.22,163.19,60.51,20.57,92.13,10.00,18.51,24.86,41.61,77.49,33.51,4.90,4.80,9.00,45.87,84.33,202.28,302.24,30.65,40.84,28.28,98.00,25.08,21.65,33.55,44.01,2.85,5.76,1.02,7.00,0,휴식 (Relax)
296.00,540.00,130.00,540.00,33.00,36.30,53.55,87.28,73.76,48.79,18.24,26.76,24.00,18.22,108.14,189.03,154.39,96.02,38.58,50.51,53.00,28.42,32.85,48.25,75.13,34.15,14.23,14.07,1.00,50.16,138.02,254.83,272.55,84.07,17.77,30.14,44.00,20.52,25.18,37.19,38.01,8.78,3.45,5.18,1.00,0,휴식 (Relax)
312.00,594.00,156.00,627.00,39.00,36.30,53.55,87.28,73.76,48.79,18.24,26.76,24.00,12.86,97.72,180.20,165.37,104.54,49.23,43.01,64.00,13.83,17.72,34.21,90.93,22.87,28.98,28.69,17.00,52.21,114.77,237.80,301.90,103.54,50.61,63.14,11.00,20.52,25.18,37.19,38.01,8.78,3.45,5.18,1.00,0,휴식 (Relax)
320.00,616.00,151.00,627.00,33.00,28.56,46.34,85.74,79.20,53.68,12.51,26.98,16.00,38.06,88.77,191.48,166.46,117.38,42.21,60.73,31.00,12.29,17.56,38.06,90.02,33.77,25.45,21.26,6.00,78.97,122.60,260.14,289.12,120.59,37.82,35.16,44.00,14.52,21.09,31.21,44.01,6.75,3.03,10.09,5.00,0,휴식 (Relax)
328.00,572.00,140.00,551.00,26.00,12.75,44.35,99.80,68.82,38.85,18.37,34.19,32.00,27.08,82.24,180.49,177.37,128.28,51.54,66.05,20.00,12.29,17.56,38.06,90.02,33.77,25.45,21.26,6.00,36.41,84.98,221.15,329.89,162.42,74.44,43.52,87.00,5.38,8.39,29.89,46.17,19.31,12.23,9.43,8.00,0,휴식 (Relax)
320.00,540.00,140.00,551.00,28.00,12.75,44.35,99.80,68.82,38.85,18.37,34.19,32.00,53.35,17.17,169.98,201.44,130.94,30.28,91.02,96.00,5.70,7.79,36.49,90.45,42.92,14.61,21.69,17.00,51.60,14.58,244.18,315.19,168.99,35.20,51.24,0.00,13.61,4.95,40.58,35.85,16.54,6.44,5.16,3.00,0,휴식 (Relax)
320.00,594.00,151.00,616.00,36.00,25.17,28.38,106.03,60.93,24.27,31.41,18.32,16.00,75.15,11.05,191.04,182.54,108.99,11.05,71.28,74.00,6.06,9.05,41.16,85.48,39.10,19.03,22.72,12.00,51.60,14.58,244.18,315.19,168.99,35.20,51.24,0.00,8.61,0.13,38.00,38.08,21.33,10.77,7.71,8.00,0,휴식 (Relax)
328.00,616.00,145.00,627.00,39.00,18.72,40.60,90.08,75.89,14.81,46.81,4.36,0.00,36.39,66.91,159.12,224.24,98.60,66.91,10.82,9.00,6.06,9.05,41.16,85.48,39.10,19.03,22.72,12.00,47.26,61.86,230.23,321.64,152.38,49.89,72.70,76.00,6.09,12.95,47.35,27.59,16.99,5.13,11.85,5.00,0,휴식 (Relax)
320.00,594.00,140.00,583.00,31.00,22.73,43.08,88.04,73.76,9.62,43.08,9.33,8.00,48.89,85.77,176.06,209.75,77.35,50.65,31.42,31.00,13.06,5.14,46.34,75.54,29.11,24.85,14.52,22.00,78.17,88.28,259.82,290.37,123.14,23.91,43.33,44.00,4.14,11.64,45.61,29.00,18.86,7.11,13.80,7.00,0,휴식 (Relax)
304.00,551.00,135.00,530.00,26.00,11.49,51.22,75.45,89.44,6.39,51.22,23.10,24.00,18.02,83.20,140.55,244.66,60.05,69.33,74.09,74.00,3.11,11.28,31.07,79.06,26.45,40.85,6.12,38.00,34.58,117.78,201.30,331.69,81.51,114.31,65.41,64.00,8.90,18.56,49.14,22.14,13.95,8.70,2.72,6.00,0,휴식 (Relax)
304.00,561.00,135.00,561.00,33.00,25.59,83.10,48.68,89.44,29.88,19.74,20.86,8.00,48.40,132.55,164.85,219.92,28.61,14.44,35.48,19.00,29.47,34.88,40.76,54.12,7.07,29.14,27.43,11.00,89.55,172.78,244.35,286.20,30.09,74.54,30.78,9.00,4.51,13.60,44.14,26.93,18.69,13.60,6.13,11.00,0,휴식 (Relax)
320.00,605.00,151.00,627.00,39.00,25.59,83.10,48.68,89.44,29.88,19.74,20.86,8.00,32.77,94.37,122.30,261.59,22.53,33.58,58.65,25.00,20.21,30.91,30.47,60.00,6.54,37.37,38.32,0.00,33.50,129.95,185.51,337.62,53.15,116.87,90.08,67.00,13.64,13.04,41.03,27.20,15.09,13.04,8.88,4.00,0,휴식 (Relax)
336.00,627.00,156.00,616.00,31.00,26.38,84.92,24.72,96.66,47.61,35.17,3.17,16.00,89.25,106.26,133.50,250.24,74.19,40.58,17.42,41.00,24.58,50.09,40.64,42.19,28.43,12.46,20.20,26.00,88.11,174.90,226.98,291.73,58.17,42.19,14.94,9.00,11.65,11.09,39.22,29.12,17.06,15.00,10.73,6.00,0,휴식 (Relax)
312.00,561.00,135.00,540.00,28.00,26.38,84.92,24.72,96.66,47.61,35.17,3.17,16.00,67.37,85.37,111.51,272.22,89.87,61.67,30.24,63.00,12.02,34.76,26.03,56.46,39.88,17.42,25.99,42.00,12.13,98.99,157.12,358.79,131.46,68.08,66.04,85.00,6.73,7.12,30.28,35.61,15.59,8.56,9.52,8.00,0,휴식 (Relax)
304.00,561.00,135.00,551.00,28.00,7.33,61.70,20.64,108.81,58.13,52.16,22.21,8.00,33.26,42.11,105.68,275.54,118.22,57.16,46.20,8.00,13.21,32.20,35.64,52.01,49.09,3.61,12.53,21.00,76.29,77.51,186.92,331.44,141.16,24.43,27.50,2.00,14.12,15.09,35.71,29.73,7.61,4.92,4.42,0.00,0,휴식 (Relax)
328.00,583.00,151.00,616.00,42.00,20.89,54.83,17.62,90.51,35.45,28.88,6.67,16.00,62.08,67.17,148.78,232.21,78.67,23.00,8.81,52.00,10.88,27.40,30.12,58.01,54.91,9.12,10.75,15.00,65.95,68.07,176.12,342.23,152.15,35.28,38.34,13.00,2.68,11.14,22.29,42.94,14.12,13.85,14.44,16.00,0,휴식 (Relax)
328.00,605.00,156.00,627.00,33.00,15.58,50.05,23.11,96.33,36.63,26.36,13.61,24.00,19.66,24.17,130.71,244.39,96.46,24.17,40.11,96.00,21.35,11.52,34.79,59.91,54.75,13.76,22.72,31.00,60.55,24.68,180.79,336.72,146.33,71.38,50.73,74.00,7.58,15.93,24.49,40.85,10.72,12.33,10.95,11.00,0,휴식 (Relax)
328.00,572.00,145.00,561.00,24.00,33.36,19.87,53.45,78.79,6.55,27.51,18.41,8.00,12.55,31.11,157.10,214.85,65.87,31.11,22.07,64.00,36.28,12.80,49.70,45.54,40.42,2.87,7.78,16.00,79.87,45.48,201.70,315.77,125.65,52.47,30.47,53.00,2.68,9.49,15.67,49.34,17.40,19.24,12.51,2.00,0,휴식 (Relax)
320.00,561.00,140.00,540.00,28.00,41.34,12.25,55.48,71.55,14.36,29.56,11.28,0.00,23.12,1.89,132.05,230.34,72.78,64.11,45.15,31.00,21.67,3.30,47.50,53.01,31.86,18.79,8.65,0.00,8.06,68.05,179.23,333.33,106.55,89.56,67.68,34.00,13.42,16.38,17.78,47.17,10.81,9.04,7.40,13.00,0,휴식 (Relax)
304.00,561.00,135.00,572.00,33.00,26.65,23.58,68.33,65.97,23.97,44.77,13.77,16.00,78.02,56.35,161.37,185.80,18.03,46.35,10.80,86.00,17.88,17.99,62.71,41.11,23.01,12.97,7.63,16.00,63.05,122.16,230.46,281.92,54.29,36.86,13.69,21.00,13.42,16.38,17.78,47.17,10.81,9.04,7.40,13.00,0,휴식 (Relax)
320.00,605.00,151.00,627.00,36.00,22.61,26.94,75.02,58.24,26.92,38.08,6.95,8.00,49.86,41.20,130.48,208.80,34.33,76.19,41.42,119.00,15.02,14.54,56.58,49.93,12.07,22.86,18.54,27.00,29.39,97.13,189.26,319.10,50.71,72.99,67.44,97.00,8.57,13.63,17.89,47.38,5.30,9.17,15.70,3.00,0,휴식 (Relax)
336.00,594.00,156.00,616.00,33.00,27.56,34.10,79.15,56.00,42.84,39.05,10.01,8.00,54.20,85.31,141.65,176.88,33.38,36.11,29.67,65.00,18.28,28.38,67.64,43.42,24.49,10.99,8.45,11.00,91.48,150.86,238.97,268.79,26.14,21.26,16.26,32.00,11.32,17.70,22.87,42.43,1.50,11.25,10.70,8.00,0,휴식 (Relax)
320.00,561.00,135.00,551.00,26.00,27.56,34.10,79.15,56.00,42.84,39.05,10.01,8.00,31.71,56.17,108.65,206.25,64.15,57.00,60.94,32.00,20.70,15.30,53.77,59.03,28.65,22.36,20.39,5.00,31.72,91.57,187.60,317.06,89.90,78.21,72.41,33.00,4.40,8.40,20.41,44.94,8.60,21.20,4.28,18.00,0,휴식 (Relax)
320.00,561.00,130.00,540.00,33.00,30.02,28.38,76.20,56.57,49.21,31.41,9.30,0.00,38.87,71.53,101.78,189.72,78.85,8.77,11.48,87.00,34.03,22.33,58.62,58.14,39.40,9.25,5.39,10.00,77.89,110.61,233.36,272.33,105.83,45.75,20.48,54.00,5.51,9.13,26.02,39.40,8.72,17.11,5.70,12.00,0,휴식 (Relax)
312.00,594.00,156.00,627.00,39.00,36.35,30.12,82.38,48.66,42.74,35.62,7.10,8.00,38.87,71.53,101.78,189.72,78.85,8.77,11.48,87.00,18.05,6.36,42.66,74.11,53.70,18.75,11.10,26.00,33.92,67.43,192.25,313.21,149.03,88.57,63.86,98.00,7.76,2.97,21.67,43.27,16.72,19.98,11.60,4.00,0,휴식 (Relax)
320.00,616.00,145.00,627.00,33.00,20.88,17.00,68.96,53.67,49.71,37.08,16.54,24.00,69.30,46.35,81.51,189.89,94.23,56.35,62.26,22.00,10.04,7.86,40.74,75.31,54.63,9.49,2.59,16.00,67.91,52.13,216.26,294.21,157.97,57.20,40.56,1.00,14.57,4.76,26.94,37.64,15.39,13.24,8.78,11.00,0,휴식 (Relax)
320.00,572.00,140.00,561.00,24.00,4.96,1.37,74.45,40.00,34.22,46.63,13.15,8.00,80.12,55.90,91.93,179.07,83.49,49.40,53.31,33.00,9.92,12.85,45.26,70.41,49.75,11.70,5.48,21.00,67.91,52.13,216.26,294.21,157.97,57.20,40.56,1.00,6.13,8.17,19.83,43.93,24.01,6.42,14.44,20.00,0,휴식 (Relax)
320.00,551.00,140.00,551.00,28.00,4.96,1.37,74.45,40.00,34.22,46.63,13.15,8.00,30.09,17.47,70.67,196.33,91.85,79.63,54.81,87.00,9.61,9.92,38.06,73.39,44.27,15.02,15.08,32.00,41.21,56.99,206.22,301.10,147.91,34.96,39.24,77.00,8.94,19.04,26.13,37.59,19.74,10.93,4.43,9.00,0,휴식 (Relax)
312.00,583.00,135.00,594.00,39.00,27.03,24.99,70.39,25.30,17.00,34.17,13.01,32.00,38.66,58.15,111.77,158.09,48.02,36.45,32.35,43.00,24.63,29.96,52.46,54.12,33.44,26.98,13.23,11.00,59.71,78.98,227.06,279.66,126.86,12.97,17.39,55.00,1.92,15.28,19.03,44.78,26.90,14.71,4.31,1.00,0,휴식 (Relax)
328.00,616.00,145.00,638.00,39.00,15.75,18.37,55.97,40.79,1.01,44.35,26.72,48.00,22.65,32.64,88.28,193.88,62.69,49.34,51.81,12.00,18.94,22.56,44.07,59.41,23.52,36.84,22.77,1.00,38.67,71.66,179.89,317.10,97.25,89.08,83.87,43.00,9.71,22.81,23.59,41.59,20.66,18.65,8.62,12.00,0,휴식 (Relax)
336.00,605.00,162.00,605.00,28.00,34.61,46.34,36.77,46.65,32.53,12.51,22.10,16.00,59.36,73.44,127.61,167.06,26.04,6.50,46.66,32.00,32.85,36.70,56.91,40.82,44.00,29.95,5.84,28.00,89.85,125.38,224.79,272.20,46.50,58.30,35.31,11.00,9.71,22.81,23.59,41.59,20.66,18.65,8.62,12.00,0,휴식 (Relax)
312.00,561.00,135.00,540.00,28.00,18.70,33.05,26.90,60.93,41.07,13.69,36.56,0.00,45.21,55.68,113.35,186.12,42.16,22.07,63.70,54.00,17.60,20.93,42.08,55.15,45.55,43.98,21.66,44.00,50.84,83.79,171.17,323.49,48.80,116.69,68.13,87.00,11.23,18.55,25.79,41.59,9.36,11.49,7.02,2.00,0,휴식 (Relax)
296.00,572.00,125.00,540.00,33.00,14.61,44.35,5.35,79.20,61.88,18.37,4.94,32.00,52.36,63.43,133.47,172.98,24.86,17.04,31.72,21.00,13.42,26.60,53.67,51.97,72.49,19.04,12.39,13.00,117.64,149.19,228.55,272.55,52.00,45.09,20.11,0.00,11.23,18.55,25.79,41.59,9.36,11.49,7.02,2.00,0,휴식 (Relax)
312.00,594.00,145.00,616.00,42.00,30.59,60.33,19.77,68.82,48.80,14.15,19.71,16.00,37.02,42.76,113.19,193.96,45.75,38.95,9.77,1.00,13.42,26.60,53.67,51.97,72.49,19.04,12.39,13.00,62.65,97.70,181.60,321.86,101.11,79.22,71.53,55.00,6.78,0.89,25.90,48.02,9.05,6.57,11.38,16.00,0,휴식 (Relax)
320.00,605.00,156.00,638.00,33.00,30.59,60.33,19.77,68.82,48.80,14.15,19.71,16.00,24.93,15.44,123.15,186.32,40.95,34.23,52.73,43.00,12.04,19.92,54.23,57.25,79.90,9.85,4.68,29.00,45.71,113.16,225.13,295.85,135.87,25.79,54.40,43.00,11.60,5.20,30.89,43.83,7.44,5.20,6.61,11.00,0,휴식 (Relax)
328.00,572.00,145.00,561.00,24.00,22.60,64.06,42.01,58.24,24.96,10.99,20.72,40.00,28.99,25.55,134.15,175.35,29.96,23.65,43.29,32.00,21.16,27.45,64.05,48.55,70.09,18.45,5.49,19.00,34.83,102.33,214.57,306.78,146.28,36.73,64.66,54.00,6.53,5.62,28.45,49.52,16.09,13.58,6.42,2.00,0,휴식 (Relax)
320.00,561.00,140.00,540.00,28.00,22.60,64.06,42.01,58.24,24.96,10.99,20.72,40.00,48.45,24.30,124.72,178.08,44.36,24.93,41.67,12.00,10.24,16.80,58.85,55.23,68.89,28.88,15.92,8.00,53.59,57.91,222.99,309.74,164.39,69.37,22.72,33.00,11.73,13.54,35.62,44.05,13.49,8.04,3.45,10.00,0,휴식 (Relax)
328.00,594.00,140.00,605.00,42.00,16.91,56.59,46.56,56.57,21.32,11.20,12.81,32.00,48.45,24.30,124.72,178.08,44.36,24.93,41.67,12.00,9.15,17.30,70.90,44.65,54.69,24.99,9.08,24.00,64.31,66.44,233.94,298.92,153.44,59.24,12.30,22.00,3.23,10.42,29.83,51.31,21.93,13.91,10.51,19.00,0,휴식 (Relax)
320.00,616.00,145.00,627.00,36.00,16.91,56.59,46.56,56.57,21.32,11.20,12.81,32.00,10.32,48.25,91.90,195.88,73.82,50.14,18.63,43.00,2.50,8.11,62.52,53.24,47.02,33.14,17.27,34.00,42.87,14.67,209.48,321.46,149.78,78.67,68.40,54.00,6.93,18.99,36.36,46.62,17.62,4.61,7.17,9.00,0,휴식 (Relax)
336.00,594.00,156.00,605.00,28.00,32.81,52.59,47.56,56.57,31.97,7.10,27.55,48.00,42.64,80.19,117.14,167.06,48.49,21.38,28.52,10.00,26.31,18.08,72.91,47.01,44.76,10.45,8.75,8.00,103.03,79.67,266.99,263.33,86.74,13.67,17.52,11.00,3.56,14.52,31.88,51.26,21.94,6.41,11.03,4.00,0,휴식 (Relax)
320.00,551.00,140.00,551.00,31.00,40.49,46.63,55.47,48.66,34.77,1.37,21.77,40.00,12.59,66.65,84.34,193.20,78.72,48.58,71.15,33.00,14.30,11.92,57.27,63.01,32.77,20.54,24.20,8.00,30.12,59.67,217.87,308.02,68.00,67.03,83.32,87.00,9.06,14.75,33.64,49.03,16.72,1.59,3.29,12.00,0,휴식 (Relax)
312.00,583.00,130.00,551.00,33.00,34.45,54.63,51.89,50.60,42.75,9.37,20.90,32.00,41.17,92.54,103.38,170.42,54.93,20.39,40.99,0.00,19.24,25.74,56.97,65.00,47.29,7.18,13.82,7.00,62.83,132.31,268.32,256.60,11.28,45.84,16.94,11.00,9.06,14.75,33.64,49.03,16.72,1.59,3.29,12.00,0,휴식 (Relax)
312.00,583.00,151.00,627.00,39.00,32.27,60.55,57.80,43.08,40.85,6.77,18.67,40.00,30.30,81.89,93.16,179.01,61.52,24.08,35.76,11.00,10.36,17.10,46.50,75.71,50.47,13.40,17.41,18.00,3.18,85.62,210.67,312.08,63.18,110.79,68.86,55.00,7.42,4.51,30.35,48.26,4.21,15.15,18.16,3.00,0,휴식 (Relax)
328.00,605.00,156.00,616.00,31.00,31.40,60.33,50.87,46.65,47.90,14.15,16.62,48.00,32.92,72.46,108.07,152.28,19.99,30.92,63.95,43.00,8.56,24.14,37.64,80.62,62.75,4.14,8.75,2.00,67.90,119.38,231.75,285.88,79.99,72.28,10.40,10.00,10.41,7.21,33.16,45.28,2.69,12.96,15.51,0.00,0,휴식 (Relax)
328.00,583.00,140.00,551.00,24.00,29.54,72.89,55.83,33.94,37.46,7.95,27.41,32.00,32.92,72.46,108.07,152.28,19.99,30.92,63.95,43.00,11.96,29.14,41.24,76.06,58.60,0.86,11.24,7.00,33.30,76.39,188.89,327.06,121.74,99.71,45.09,53.00,6.19,9.00,25.63,49.24,12.46,20.22,13.62,15.00,0,휴식 (Relax)
320.00,561.00,140.00,561.00,31.00,32.40,65.05,47.84,40.00,42.61,15.77,35.29,24.00,24.75,21.08,108.26,142.00,39.61,67.46,75.96,12.00,10.41,25.85,36.81,78.29,59.90,5.64,15.90,12.00,76.85,60.45,181.54,315.19,130.62,23.96,33.28,24.00,14.12,16.59,32.25,42.06,12.43,12.28,9.48,7.00,0,휴식 (Relax)
328.00,594.00,145.00,616.00,42.00,38.88,61.08,45.96,35.78,35.31,10.48,27.59,32.00,35.75,22.89,119.17,131.00,33.93,57.11,67.03,1.00,22.39,32.82,42.37,63.82,42.99,14.16,1.71,5.00,65.87,50.36,170.99,326.19,141.62,21.96,44.16,35.00,4.33,15.08,22.80,50.25,26.42,11.94,11.64,7.00,0,휴식 (Relax)
328.00,594.00,162.00,638.00,33.00,23.27,58.04,33.35,50.60,39.81,21.72,18.59,48.00,14.57,14.41,106.92,135.09,61.62,53.41,36.43,32.00,4.90,6.67,16.06,82.46,37.82,40.14,28.56,32.00,42.18,53.09,132.50,337.41,140.15,82.85,63.70,63.00,8.08,19.74,26.11,46.69,24.78,7.09,10.52,2.00,0,휴식 (Relax)
328.00,572.00,140.00,551.00,26.00,9.19,40.25,12.37,50.60,8.48,13.11,35.02,16.00,14.57,14.41,106.92,135.09,61.62,53.41,36.43,32.00,19.00,8.61,21.75,73.93,23.52,33.64,15.52,17.00,53.07,63.10,142.38,326.79,129.17,77.08,52.71,52.00,1.28,13.84,19.88,52.01,30.71,3.24,14.71,5.00,0,휴식 (Relax)
320.00,561.00,140.00,551.00,28.00,17.16,33.45,20.14,43.08,11.33,5.74,31.04,24.00,24.59,43.03,80.53,146.69,79.93,21.97,68.85,1.00,15.00,5.37,17.13,78.29,20.30,36.43,14.06,12.00,19.68,71.02,104.09,349.76,116.73,114.33,28.33,13.00,12.75,18.74,26.00,44.78,21.70,11.43,4.75,9.00,0,휴식 (Relax)
288.00,561.00,130.00,561.00,36.00,18.26,65.22,26.86,62.48,28.92,31.54,44.14,56.00,63.46,84.22,104.68,109.20,42.33,54.64,37.98,43.00,23.87,28.52,31.90,69.87,22.80,11.24,26.17,38.00,95.43,147.45,167.54,282.40,49.67,38.15,54.30,64.00,10.08,15.75,23.17,47.54,23.75,13.42,4.59,12.00,0,휴식 (Relax)
328.00,616.00,145.00,638.00,39.00,18.26,65.22,26.86,62.48,28.92,31.54,44.14,56.00,40.18,72.53,65.79,140.25,71.53,82.18,57.34,87.00,23.87,28.52,31.90,69.87,22.80,11.24,26.17,38.00,32.41,101.58,120.97,330.28,35.18,66.39,124.52,141.00,12.06,11.10,27.22,44.10,11.65,19.87,16.18,3.00,0,휴식 (Relax)
328.00,605.00,151.00,605.00,31.00,11.12,66.39,28.85,68.82,36.36,31.12,36.14,48.00,66.72,108.55,87.17,118.11,42.97,88.32,21.26,43.00,13.19,28.74,35.94,69.00,33.78,18.87,25.87,27.00,71.24,141.45,172.43,287.00,42.92,17.55,83.42,76.00,14.92,13.83,30.19,41.11,10.38,16.87,13.20,0.00,0,휴식 (Relax)
320.00,561.00,140.00,561.00,31.00,16.83,59.85,20.85,73.76,42.10,37.55,28.94,40.00,35.38,77.66,57.36,149.33,70.74,119.48,21.13,10.00,13.19,28.74,35.94,69.00,33.78,18.87,25.87,27.00,27.60,97.62,139.84,323.20,82.32,58.26,93.65,32.00,4.20,5.72,29.48,41.77,1.10,12.54,6.62,11.00,0,휴식 (Relax)
304.00,561.00,130.00,540.00,31.00,28.95,44.05,20.76,86.53,49.38,22.18,40.85,56.00,19.74,77.94,85.59,143.50,48.30,75.92,48.61,65.00,23.94,14.42,35.16,70.61,45.97,29.73,15.92,42.00,60.11,80.13,193.88,286.23,115.50,50.01,62.78,119.00,3.78,9.18,34.33,36.88,5.64,9.78,6.90,6.00,0,휴식 (Relax)
312.00,594.00,151.00,616.00,39.00,47.75,36.30,44.76,75.89,26.58,38.71,33.98,32.00,19.74,77.94,85.59,143.50,48.30,75.92,48.61,65.00,27.29,13.54,40.05,65.73,42.12,24.88,19.82,37.00,49.73,70.44,184.13,296.74,125.76,60.97,62.21,130.00,8.08,2.71,29.29,40.71,14.79,4.32,13.19,5.00,0,휴식 (Relax)
328.00,605.00,162.00,638.00,33.00,43.14,31.34,42.34,83.52,28.09,41.30,38.02,24.00,44.03,33.62,104.02,157.50,42.60,49.99,20.74,11.00,27.33,15.67,33.17,73.93,53.59,23.59,41.62,15.00,61.73,25.97,211.60,284.00,150.14,65.97,123.33,43.00,9.75,4.71,30.84,38.95,14.80,5.28,12.13,3.00,0,휴식 (Relax)
328.00,583.00,140.00,551.00,26.00,43.75,16.06,56.20,80.40,12.16,49.30,25.84,40.00,44.03,33.62,104.02,157.50,42.60,49.99,20.74,11.00,35.25,19.64,42.54,65.46,44.30,14.70,32.20,25.00,61.73,25.97,211.60,284.00,150.14,65.97,123.33,43.00,7.81,5.08,24.97,42.80,21.56,12.26,13.37,4.00,0,휴식 (Relax)
320.00,572.00,135.00,551.00,28.00,48.81,9.02,62.38,72.44,17.62,41.36,33.09,32.00,34.36,25.26,102.65,162.41,41.41,60.98,10.94,22.00,19.68,26.86,34.39,75.66,47.49,2.94,23.71,41.00,19.41,61.12,205.57,294.25,153.76,55.80,55.12,119.00,16.39,16.07,29.75,34.71,17.71,8.47,9.00,7.00,0,휴식 (Relax)
312.00,572.00,140.00,583.00,36.00,34.90,19.20,68.16,72.44,20.73,30.19,49.09,16.00,31.19,7.89,132.97,134.27,15.96,46.00,43.64,11.00,3.95,42.86,47.48,65.22,31.50,13.17,27.24,25.00,51.99,91.75,237.39,262.55,120.95,24.69,76.12,86.00,11.40,13.09,24.90,38.60,22.28,12.98,9.03,12.00,0,휴식 (Relax)
320.00,616.00,145.00,627.00,39.00,27.16,22.87,76.14,64.50,25.97,29.75,41.85,24.00,23.15,29.16,113.19,155.56,17.06,70.41,75.64,44.00,8.24,39.42,43.67,69.34,29.77,16.92,28.33,20.00,30.35,88.21,201.34,293.96,106.73,52.60,130.00,10.00,5.79,22.58,27.55,32.02,16.14,6.34,18.31,3.00,0,휴식 (Relax)
336.00,594.00,151.00,605.00,31.00,43.11,29.75,72.82,68.35,41.00,22.87,33.80,40.00,41.21,59.73,135.67,134.27,31.32,38.91,51.28,11.00,17.95,41.67,48.54,63.98,22.20,18.58,31.26,31.00,74.19,129.97,236.04,257.41,64.77,32.39,109.91,54.00,5.79,22.58,27.55,32.02,16.14,6.34,18.31,3.00,0,휴식 (Relax)
304.00,561.00,140.00,551.00,24.00,24.00,6.12,52.94,91.21,49.85,14.78,42.61,64.00,35.93,51.88,106.93,162.41,61.01,40.80,53.97,22.00,14.52,37.23,43.62,68.54,17.33,23.37,35.13,36.00,25.18,80.49,184.92,300.62,49.54,92.04,132.63,119.00,12.22,19.56,27.60,32.57,12.82,12.94,4.94,15.00,0,휴식 (Relax)
312.00,561.00,135.00,551.00,28.00,25.08,10.61,39.31,96.66,59.94,25.60,29.82,48.00,62.28,79.67,117.77,149.62,67.02,13.67,38.43,11.00,27.42,13.53,46.44,63.00,34.00,13.53,11.09,9.00,95.12,127.20,231.42,248.85,37.46,49.23,76.37,32.00,16.98,24.06,32.59,27.86,7.89,9.01,5.21,10.00,0,휴식 (Relax)
312.00,594.00,151.00,616.00,42.00,38.12,25.60,46.06,82.37,45.62,10.61,44.99,64.00,40.37,59.38,95.85,170.77,89.01,10.19,33.25,33.00,16.62,16.75,35.44,74.00,34.28,24.32,5.32,2.00,31.80,63.00,171.51,307.39,86.67,109.11,59.66,33.00,10.66,10.99,29.54,36.77,16.45,18.63,17.64,6.00,0,휴식 (Relax)
328.00,605.00,151.00,627.00,33.00,30.17,22.38,38.26,86.53,47.41,11.79,52.93,72.00,12.44,61.72,93.04,165.00,84.17,41.91,62.84,11.00,5.96,18.60,32.99,74.81,43.90,16.85,12.99,9.00,58.20,68.11,192.65,286.40,116.26,57.72,102.89,43.00,14.20,12.84,34.32,33.42,12.98,13.90,14.14,1.00,0,휴식 (Relax)
328.00,572.00,145.00,561.00,24.00,13.79,54.83,51.27,57.69,8.25,28.88,26.40,32.00,21.85,72.11,103.80,154.00,73.54,33.05,51.96,0.00,11.75,20.00,46.92,60.02,34.30,19.50,2.04,6.00,58.20,68.11,192.65,286.40,116.26,57.72,102.89,43.00,4.01,2.83,28.48,43.42,21.75,14.35,15.99,11.00,0,휴식 (Relax)
328.00,551.00,135.00,530.00,28.00,13.79,54.83,51.27,57.69,8.25,28.88,26.40,32.00,43.15,33.01,86.57,167.16,60.63,71.22,18.65,65.00,1.75,24.88,41.12,62.63,41.07,20.03,11.79,16.00,58.37,69.22,190.24,290.15,154.21,56.38,18.98,65.00,8.45,8.80,37.43,39.29,14.52,5.15,9.62,0.00,0,휴식 (Relax)
296.00,561.00,135.00,583.00,39.00,18.44,52.86,59.19,48.00,30.69,45.50,29.10,64.00,85.46,71.65,129.18,127.77,17.03,32.06,26.72,21.00,14.47,40.84,52.43,47.85,27.51,30.86,7.79,0.00,80.37,91.09,212.08,268.73,133.56,50.77,16.56,43.00,5.77,7.84,31.44,47.07,20.69,3.25,8.40,8.00,0,휴식 (Relax)
320.00,616.00,145.00,638.00,39.00,18.44,52.86,59.19,48.00,30.69,45.50,29.10,64.00,50.06,33.27,108.24,162.79,46.74,62.01,78.54,34.00,9.89,37.27,48.12,50.25,29.40,35.79,12.56,5.00,31.29,72.80,187.16,296.65,153.22,117.20,81.69,34.00,12.45,15.54,35.40,46.04,14.93,7.39,12.03,0.00,0,휴식 (Relax)
336.00,616.00,162.00,638.00,28.00,21.16,23.11,59.59,57.69,60.55,35.47,45.42,32.00,76.73,76.89,157.64,132.00,44.12,15.80,44.63,21.00,26.95,49.97,62.01,28.23,3.49,30.68,19.69,27.00,115.97,165.17,276.11,215.52,57.14,52.27,54.79,64.00,9.45,13.15,32.49,49.04,16.69,10.25,14.86,3.00,0,휴식 (Relax)
336.00,572.00,140.00,551.00,24.00,44.96,29.75,83.49,40.00,49.84,22.87,23.56,56.00,56.24,57.25,143.30,152.28,65.77,32.20,52.73,43.00,16.05,38.99,51.63,38.60,14.18,40.94,30.39,38.00,52.64,115.59,236.96,262.69,83.64,105.17,114.61,129.00,7.47,19.28,33.76,50.70,5.15,13.28,1.34,12.00,0,휴식 (Relax)
312.00,551.00,135.00,540.00,31.00,30.08,13.86,77.58,53.67,63.33,13.86,8.58,72.00,3.36,68.80,176.66,142.00,74.22,25.70,31.43,11.00,15.95,25.65,57.73,40.31,26.84,20.78,16.74,11.00,68.58,157.72,305.59,216.01,41.06,38.82,21.06,31.00,9.45,21.28,35.76,48.76,3.62,11.29,1.74,10.00,0,휴식 (Relax)
320.00,594.00,145.00,627.00,42.00,25.57,8.66,83.96,50.60,57.35,20.91,16.48,64.00,14.08,57.96,166.58,153.00,85.12,36.18,32.72,22.00,11.06,22.80,52.75,44.94,30.98,22.80,19.59,6.00,12.90,81.80,241.90,289.39,116.67,107.16,69.43,45.00,7.34,15.60,31.87,55.23,12.59,12.02,16.84,6.00,0,휴식 (Relax)
320.00,616.00,145.00,627.00,39.00,25.57,8.66,83.96,50.60,57.35,20.91,16.48,64.00,57.65,32.93,173.69,158.93,84.88,40.59,57.54,22.00,1.79,13.42,50.56,49.40,33.99,13.42,11.54,16.00,80.66,55.93,271.90,282.21,116.58,56.48,10.70,31.00,18.34,25.08,42.23,46.23,12.32,1.02,8.77,5.00,0,휴식 (Relax)
328.00,583.00,145.00,572.00,28.00,25.69,8.66,88.06,48.00,41.35,20.91,10.75,80.00,67.68,40.68,184.64,148.37,74.00,29.66,46.83,11.00,5.02,8.82,54.96,45.22,29.00,18.23,16.16,11.00,71.49,46.72,261.02,293.21,127.56,62.40,21.13,42.00,11.45,17.89,37.64,51.62,20.31,7.35,11.46,13.00,0,휴식 (Relax)
320.00,561.00,140.00,540.00,26.00,25.69,8.66,88.06,48.00,41.35,20.91,10.75,80.00,48.17,15.04,165.99,172.53,65.20,36.30,10.68,44.00,0.16,11.29,51.26,48.27,27.81,21.28,21.16,6.00,78.49,41.34,254.68,308.95,119.16,26.71,66.26,45.00,12.68,19.42,46.69,43.57,19.80,8.64,5.95,0.00,0,휴식 (Relax)
312.00,572.00,135.00,572.00,36.00,42.24,28.46,80.87,53.67,30.19,9.27,15.38,56.00,62.37,35.83,184.72,154.93,43.52,16.13,11.91,22.00,16.05,18.99,59.04,37.44,16.41,27.04,9.58,22.00,108.67,70.83,286.41,277.86,86.51,32.17,36.83,12.00,8.74,14.76,42.33,47.89,24.78,13.57,8.14,5.00,0,휴식 (Relax)
312.00,616.00,145.00,627.00,42.00,34.41,21.78,74.20,60.93,22.49,17.13,22.00,48.00,20.75,46.54,145.14,194.45,47.01,54.85,65.12,33.00,11.56,18.90,54.19,41.68,11.44,32.01,11.07,27.00,32.89,78.84,247.59,312.85,78.91,108.13,65.43,64.00,10.71,6.64,48.33,42.30,23.06,14.62,16.91,13.00,0,휴식 (Relax)
328.00,605.00,156.00,616.00,33.00,18.82,25.60,61.27,68.82,35.13,10.61,17.02,64.00,36.87,90.46,170.63,170.84,14.35,26.22,33.78,11.00,16.95,37.68,55.47,36.00,26.28,20.60,13.90,6.00,40.30,143.36,296.51,261.34,13.92,76.19,7.38,1.00,14.79,11.63,53.29,37.34,18.09,9.63,11.93,8.00,0,휴식 (Relax)
328.00,572.00,145.00,561.00,24.00,12.25,41.36,67.89,56.57,40.19,9.02,16.78,48.00,28.48,77.30,150.02,190.79,35.49,42.89,40.14,33.00,11.12,32.44,49.53,42.00,26.71,24.49,18.26,0.00,14.79,107.10,250.76,300.78,50.81,116.96,52.61,56.00,14.61,12.07,51.40,39.22,18.15,12.42,7.38,10.00,0,휴식 (Relax)
328.00,551.00,140.00,540.00,28.00,12.25,41.36,67.89,56.57,40.19,9.02,16.78,48.00,68.98,104.82,158.94,176.38,45.97,16.84,31.11,21.00,1.13,31.75,44.77,43.42,36.43,13.49,15.72,11.00,100.31,153.50,285.34,253.19,69.57,37.56,49.03,31.00,19.10,17.06,56.17,34.54,13.21,7.68,2.44,5.00,0,휴식 (Relax)
304.00,561.00,140.00,572.00,36.00,16.09,44.89,66.20,43.08,41.02,30.48,33.17,72.00,79.98,115.82,169.92,165.47,36.50,5.90,29.22,10.00,5.48,35.79,48.60,38.60,33.01,17.30,14.06,6.00,90.59,142.51,274.49,263.18,79.13,38.96,59.90,42.00,7.10,12.85,49.42,40.61,15.85,11.70,9.59,7.00,0,휴식 (Relax)
320.00,616.00,151.00,638.00,39.00,22.09,52.44,73.92,35.78,33.04,24.04,25.23,64.00,31.50,83.07,153.58,169.54,81.02,61.79,81.07,55.00,10.68,20.34,35.56,45.80,42.82,25.58,14.56,10.00,88.55,105.89,271.60,240.00,139.42,76.57,52.17,66.00,5.17,22.30,56.97,32.65,5.70,1.59,3.92,4.00,0,휴식 (Relax)
328.00,605.00,156.00,627.00,31.00,27.02,28.11,60.36,35.78,34.11,38.91,9.73,32.00,56.63,113.11,194.21,127.47,56.13,40.26,37.21,11.00,31.38,22.28,47.02,31.38,25.22,32.15,22.72,11.00,128.21,142.96,314.68,196.00,105.33,66.20,9.54,22.00,2.99,15.22,49.83,39.12,11.04,8.73,11.40,12.00,0,휴식 (Relax)
328.00,583.00,140.00,572.00,28.00,34.63,30.98,67.12,28.84,26.20,30.98,3.10,40.00,25.06,80.44,173.66,142.04,84.15,66.67,18.25,22.00,27.08,17.40,42.43,35.78,27.48,37.11,27.55,16.00,62.25,82.44,283.80,206.81,145.09,124.03,61.27,44.00,13.49,17.01,52.22,34.48,7.13,6.37,2.12,1.00,0,휴식 (Relax)
312.00,551.00,130.00,530.00,28.00,11.15,10.61,50.07,46.65,31.46,25.60,21.81,64.00,40.00,68.18,216.15,93.81,56.55,20.43,59.85,43.00,27.90,19.27,54.11,35.78,6.54,23.26,6.53,16.00,58.37,119.52,368.54,110.00,67.18,52.07,51.35,64.00,13.49,17.01,52.22,34.48,7.13,6.37,2.12,1.00,0,휴식 (Relax)
320.00,583.00,151.00,605.00,39.00,11.06,6.12,59.94,40.79,16.28,14.78,10.74,48.00,30.35,58.83,206.25,102.93,67.00,29.64,68.79,54.00,19.28,9.36,43.64,45.88,17.13,32.65,17.28,27.00,6.47,65.65,325.62,148.81,113.18,96.08,105.27,118.00,12.74,8.12,47.46,33.38,13.44,10.68,13.75,16.00,0,휴식 (Relax)
320.00,605.00,151.00,627.00,36.00,4.67,8.00,52.61,48.66,18.57,8.00,13.93,40.00,44.62,11.38,216.83,87.01,53.27,27.47,58.57,0.00,8.32,17.52,45.78,53.60,20.65,18.31,4.53,11.00,81.31,67.66,361.63,120.00,78.88,33.65,44.80,31.00,17.07,12.20,51.74,28.44,10.07,6.42,9.70,11.00,0,휴식 (Relax)
336.00,616.00,151.00,616.00,31.00,12.66,24.00,55.69,48.66,3.22,24.00,7.45,56.00,66.32,28.75,238.77,65.01,31.81,12.05,48.51,22.00,7.18,23.40,51.76,48.92,14.88,20.16,6.60,17.00,71.46,56.68,350.75,131.00,89.39,41.56,48.19,20.00,6.11,3.65,43.59,32.25,18.68,12.44,11.39,0.00,0,휴식 (Relax)
320.00,561.00,135.00,530.00,28.00,12.66,24.00,55.69,48.66,3.22,24.00,7.45,56.00,19.12,31.03,220.07,84.50,42.80,62.12,45.24,77.00,13.31,19.42,48.12,55.97,17.41,19.42,14.17,27.00,75.83,65.85,340.84,162.41,81.01,55.91,70.12,117.00,5.31,13.41,49.15,23.35,12.69,3.19,5.58,11.00,0,휴식 (Relax)
296.00,551.00,130.00,551.00,33.00,27.52,40.00,50.82,62.48,28.80,40.00,34.74,24.00,35.49,61.78,246.75,63.29,23.23,40.56,50.37,45.00,28.21,30.53,60.58,47.41,3.49,30.53,11.73,12.00,95.35,86.58,360.61,146.00,60.29,42.09,59.06,96.00,0.60,9.55,44.30,27.02,16.98,6.98,6.67,16.00,0,휴식 (Relax)
312.00,594.00,151.00,627.00,36.00,35.52,47.93,58.63,56.57,26.85,32.10,26.91,32.00,6.41,51.38,220.93,93.05,53.99,59.56,78.69,12.00,18.07,19.99,52.34,57.38,13.03,41.31,21.35,1.00,9.88,77.45,309.72,213.52,95.27,105.36,104.30,9.00,9.96,14.21,44.14,22.14,11.52,4.25,10.74,6.00,0,휴식 (Relax)
344.00,605.00,156.00,627.00,36.00,13.39,37.73,48.48,82.37,57.06,29.67,18.93,64.00,29.27,77.87,233.57,87.00,43.69,26.80,45.71,45.00,17.14,22.26,63.51,53.01,16.98,33.89,0.74,22.00,50.23,130.82,346.30,191.09,54.36,58.26,51.77,64.00,9.96,14.21,44.14,22.14,11.52,4.25,10.74,6.00,0,휴식 (Relax)
320.00,572.00,140.00,540.00,24.00,17.65,44.05,55.90,78.79,52.82,22.18,13.16,56.00,24.72,37.77,189.69,131.00,86.24,36.16,15.59,89.00,13.22,17.35,58.78,58.01,21.48,37.32,4.99,27.00,39.72,76.72,268.13,275.54,126.98,103.06,35.32,151.00,12.44,13.51,35.55,23.71,10.07,15.92,7.49,24.00,0,휴식 (Relax)
320.00,572.00,125.00,551.00,31.00,10.80,36.21,50.80,86.16,58.21,15.00,7.69,48.00,57.13,45.93,182.34,135.09,73.73,5.53,29.62,56.00,19.43,18.75,65.04,65.30,37.77,6.36,26.19,4.00,104.59,122.31,283.88,270.19,95.69,40.95,36.56,86.00,14.42,15.50,37.13,21.95,8.42,14.27,5.55,22.00,0,휴식 (Relax)
312.00,583.00,151.00,627.00,42.00,6.65,30.81,60.66,81.58,43.89,24.23,22.21,64.00,46.62,35.12,172.94,145.78,83.14,13.45,37.57,45.00,15.12,13.07,59.05,70.68,42.94,5.41,31.90,10.00,52.50,59.24,217.94,336.15,154.38,66.44,102.54,20.00,5.37,11.58,23.48,34.67,21.87,21.30,14.06,4.00,0,휴식 (Relax)
320.00,627.00,151.00,627.00,36.00,13.13,36.36,68.16,73.76,43.45,24.45,14.36,56.00,51.44,50.27,119.27,179.01,52.71,63.68,65.87,121.00,16.05,13.48,56.40,76.01,45.42,6.35,24.30,1.00,92.63,86.80,197.41,349.72,113.70,23.76,38.77,107.00,13.19,19.45,28.44,31.02,17.27,13.33,6.25,12.00,0,휴식 (Relax)
328.00,583.00,145.00,572.00,28.00,17.69,12.51,70.98,72.44,23.84,46.34,14.99,32.00,72.95,71.08,132.94,162.11,31.35,49.09,44.13,99.00,20.03,18.29,60.73,71.85,40.43,6.12,25.84,4.00,92.63,86.80,197.41,349.72,113.70,23.76,38.77,107.00,5.84,13.92,21.26,38.60,23.44,10.30,5.33,20.00,0,휴식 (Relax)
312.00,561.00,135.00,540.00,26.00,9.91,18.24,63.03,80.40,16.42,53.55,22.88,24.00,22.54,65.33,83.26,203.21,41.97,81.27,14.88,44.00,5.13,9.54,49.31,82.04,36.55,21.75,30.57,20.00,19.35,78.96,143.05,388.49,65.90,90.20,83.72,9.00,11.08,20.97,26.46,37.05,14.74,9.72,8.72,7.00,0,휴식 (Relax)
304.00,561.00,140.00,572.00,36.00,14.14,32.68,55.42,86.16,28.06,50.16,6.14,48.00,40.60,106.46,100.78,180.75,24.47,38.39,29.87,88.00,11.36,23.91,58.57,71.40,22.98,13.57,32.00,4.00,69.87,133.18,188.05,342.03,21.74,51.79,59.77,64.00,6.11,15.99,21.66,42.05,18.48,10.41,12.96,2.00,0,휴식 (Relax)
320.00,616.00,145.00,627.00,39.00,21.85,35.18,62.50,78.79,30.88,44.29,6.18,40.00,9.19,79.20,69.04,211.15,57.47,38.12,60.75,121.00,7.59,19.70,53.89,75.45,18.62,17.26,35.55,1.00,19.06,95.69,148.28,376.11,33.28,87.37,93.44,119.00,5.35,12.45,23.54,43.97,10.74,17.86,9.89,13.00,0,휴식 (Relax)
336.00,605.00,162.00,627.00,33.00,13.90,49.03,47.31,91.21,54.82,20.31,26.58,16.00,45.23,92.33,85.22,198.22,61.50,22.30,36.67,67.00,30.87,35.00,62.11,62.97,34.01,15.14,11.86,31.00,91.28,150.94,212.02,310.41,90.38,20.24,24.68,22.00,10.34,16.56,28.54,39.22,8.35,13.03,8.05,8.00,0,휴식 (Relax)
320.00,583.00,135.00,561.00,26.00,13.90,49.03,47.31,91.21,54.82,20.31,26.58,16.00,45.23,92.33,85.22,198.22,61.50,22.30,36.67,67.00,15.26,19.55,46.28,78.77,34.96,29.66,14.38,47.00,48.93,107.38,175.03,346.83,124.44,63.97,47.80,22.00,5.71,5.35,26.63,45.22,4.88,13.47,11.60,5.00,0,휴식 (Relax)
328.00,561.00,140.00,551.00,28.00,21.61,54.73,55.04,86.53,49.17,21.47,31.58,8.00,36.44,59.26,89.60,198.22,66.22,59.78,26.35,111.00,9.93,17.98,45.17,78.00,44.04,26.39,14.48,36.00,53.24,88.73,207.01,313.21,156.51,50.83,61.02,54.00,13.32,10.48,34.35,38.95,8.75,6.02,10.30,3.00,0,휴식 (Relax)
312.00,572.00,145.00,605.00,36.00,4.76,58.41,56.67,67.88,27.67,44.32,46.31,16.00,74.33,79.06,133.58,154.57,22.44,28.92,46.70,67.00,13.17,23.11,50.80,72.00,39.44,23.11,11.05,42.00,63.83,97.84,217.76,302.91,145.96,40.11,50.56,43.00,8.46,5.79,31.69,42.45,13.20,1.56,13.79,8.00,0,휴식 (Relax)
320.00,605.00,151.00,638.00,36.00,4.76,58.41,56.67,67.88,27.67,44.32,46.31,16.00,30.40,35.17,122.35,166.63,44.81,62.55,90.28,23.00,6.43,9.27,41.97,73.76,47.40,9.27,11.23,58.00,45.71,25.10,224.31,283.00,173.23,76.16,57.53,65.00,5.63,8.38,37.25,37.44,15.35,7.86,6.43,0.00,0,휴식 (Relax)
344.00,616.00,151.00,605.00,28.00,43.32,21.72,53.79,48.00,21.15,58.04,63.23,32.00,40.64,43.53,182.49,110.00,40.72,22.92,33.75,88.00,23.46,23.64,58.29,53.45,27.85,30.25,19.40,37.00,99.25,78.52,278.15,229.00,120.53,39.51,19.93,11.00,4.69,3.41,32.84,41.68,20.31,11.42,1.85,5.00,0,휴식 (Relax)
320.00,551.00,145.00,551.00,26.00,50.75,26.36,61.79,40.00,21.21,50.05,56.04,24.00,2.82,11.04,157.97,140.09,81.81,64.06,46.29,131.00,19.08,18.21,53.52,55.54,29.07,34.85,25.34,31.00,47.50,53.27,253.47,241.28,134.02,100.28,85.66,65.00,10.79,8.46,35.55,37.64,19.95,13.80,11.72,5.00,0,휴식 (Relax)
312.00,551.00,135.00,551.00,33.00,34.69,5.74,57.75,51.22,52.96,33.45,24.33,8.00,56.78,62.81,196.43,114.18,89.38,36.88,20.36,77.00,23.48,23.72,62.89,37.20,8.34,38.02,7.51,52.00,95.01,125.71,319.62,170.84,58.53,44.22,17.17,11.00,12.98,11.24,38.55,34.79,17.01,10.85,8.93,2.00,0,휴식 (Relax)
312.00,605.00,145.00,627.00,39.00,37.38,12.25,65.54,45.25,49.85,29.56,32.23,0.00,28.96,42.29,168.25,146.01,122.34,65.14,41.73,44.00,19.20,18.73,58.02,40.36,6.42,42.75,8.67,57.00,13.93,72.01,260.98,223.56,93.82,112.90,86.74,98.00,14.27,14.31,35.91,33.24,15.05,8.31,11.16,13.00,0,휴식 (Relax)
336.00,616.00,162.00,638.00,33.00,27.65,16.00,57.90,57.69,62.77,16.00,46.73,16.00,43.54,71.75,182.32,142.35,114.95,29.72,37.10,88.00,18.71,26.18,64.06,27.89,31.32,19.56,30.55,20.00,76.18,138.54,315.64,175.86,47.21,48.91,16.89,11.00,16.03,16.31,37.78,31.26,13.05,6.31,9.23,11.00,0,휴식 (Relax)
328.00,572.00,140.00,551.00,26.00,19.13,32.00,70.25,50.60,50.69,32.00,36.68,0.00,33.11,61.04,171.34,153.33,125.26,33.77,46.19,99.00,11.62,15.95,53.09,38.64,36.17,28.14,40.27,9.00,37.68,70.72,247.39,247.95,122.14,106.85,85.46,65.00,1.12,12.37,29.47,36.89,15.97,12.37,6.88,5.00,0,휴식 (Relax)
312.00,561.00,135.00,540.00,31.00,24.69,26.94,63.64,58.24,54.45,38.08,36.55,8.00,32.90,62.86,161.78,170.84,94.64,34.34,21.14,33.00,19.92,18.98,50.54,44.42,46.89,13.18,31.47,25.00,113.56,105.70,272.38,239.92,111.20,39.90,18.89,22.00,4.70,17.06,33.39,32.80,11.38,8.05,2.42,0.00,0,휴식 (Relax)
312.00,605.00,140.00,616.00,42.00,40.30,34.10,69.20,56.00,38.75,39.05,32.34,8.00,14.79,41.53,141.22,190.79,113.64,49.37,40.61,11.00,24.82,23.94,55.19,40.22,42.51,15.19,31.81,20.00,70.10,61.83,228.46,283.78,154.93,71.20,56.64,66.00,10.52,8.07,22.74,42.80,18.82,15.32,13.34,14.00,0,휴식 (Relax)
328.00,605.00,162.00,649.00,36.00,24.93,18.24,53.26,72.00,39.44,53.55,29.57,24.00,43.11,20.44,114.54,212.19,84.90,61.19,30.36,55.00,5.82,16.97,41.61,59.91,53.39,28.03,36.39,7.00,64.18,84.67,219.38,311.43,141.78,44.06,53.07,43.00,20.47,16.22,28.86,37.58,11.40,6.07,4.21,4.00,0,휴식 (Relax)
328.00,583.00,140.00,572.00,28.00,17.99,13.69,51.61,75.89,16.07,33.05,43.29,0.00,65.09,41.48,129.39,194.45,73.71,39.52,19.79,33.00,5.82,16.97,41.61,59.91,53.39,28.03,36.39,7.00,64.18,84.67,219.38,311.43,141.78,44.06,53.07,43.00,13.77,9.27,21.77,44.94,17.24,9.27,7.43,4.00,0,휴식 (Relax)
320.00,572.00,140.00,561.00,28.00,17.99,13.69,51.61,75.89,16.07,33.05,43.29,0.00,30.97,24.54,90.82,224.29,29.73,23.83,39.71,11.00,1.80,12.83,37.36,64.14,53.01,30.97,37.83,2.00,8.60,72.17,188.75,344.25,122.84,62.46,40.87,23.00,13.31,13.80,25.98,42.30,10.26,1.91,3.84,7.00,0,휴식 (Relax)
304.00,572.00,130.00,572.00,39.00,17.73,23.44,42.00,91.21,29.30,27.03,11.64,32.00,42.43,56.43,103.05,203.21,51.48,12.79,30.88,22.00,30.85,33.39,53.72,55.01,27.19,3.01,28.40,34.00,60.71,122.79,232.77,300.67,76.49,9.05,29.01,32.00,10.09,7.81,20.14,48.26,15.32,7.81,9.27,13.00,0,휴식 (Relax)
320.00,616.00,145.00,638.00,39.00,17.73,23.44,42.00,91.21,29.30,27.03,11.64,32.00,18.16,35.14,70.54,230.67,55.95,37.25,56.86,55.00,22.20,24.45,44.82,65.01,17.68,9.28,28.46,44.00,25.16,65.28,175.29,355.69,33.37,76.27,91.49,109.00,9.85,10.00,22.55,48.66,10.28,10.00,8.05,0.00,0,휴식 (Relax)
328.00,605.00,156.00,627.00,31.00,17.73,23.44,42.00,91.21,29.30,27.03,11.64,32.00,34.88,66.25,75.93,211.15,91.56,43.92,13.25,11.00,19.44,25.91,49.46,66.71,23.82,14.31,35.44,28.00,100.06,112.95,220.47,312.46,43.37,49.89,58.73,33.00,11.12,12.98,25.54,45.71,7.40,7.04,5.40,3.00,0,휴식 (Relax)
336.00,583.00,140.00,561.00,28.00,30.84,39.45,56.54,73.76,24.04,10.39,25.51,56.00,43.29,76.89,86.93,200.93,83.52,32.98,24.21,22.00,17.02,21.34,44.47,71.59,22.14,19.25,39.88,23.00,59.65,70.31,180.57,351.56,69.56,91.47,88.38,11.00,12.54,10.12,24.30,47.76,6.29,7.18,2.96,11.00,0,휴식 (Relax)
304.00,551.00,135.00,551.00,31.00,15.61,24.00,42.61,86.53,39.95,24.00,41.48,72.00,47.84,67.09,84.20,187.30,115.88,34.68,76.49,76.00,12.86,7.98,42.19,76.56,38.03,15.82,23.92,39.00,69.97,83.68,207.45,323.60,124.19,48.01,20.55,76.00,16.75,14.08,28.99,43.08,1.44,2.42,3.61,6.00,0,휴식 (Relax)
320.00,594.00,145.00,616.00,39.00,8.44,25.60,53.06,75.89,36.04,10.61,20.56,48.00,68.13,86.37,106.07,165.47,96.58,13.41,58.61,54.00,13.82,11.00,47.87,71.11,35.65,11.00,29.71,33.00,59.79,72.71,196.55,334.38,133.38,57.41,19.79,87.00,5.88,4.33,23.30,48.26,11.27,8.68,14.54,5.00,0,휴식 (Relax)
328.00,627.00,145.00,638.00,36.00,3.96,17.89,45.41,83.52,43.86,17.89,18.71,40.00,9.12,29.94,97.31,172.66,132.09,72.28,72.83,22.00,13.82,11.00,47.87,71.11,35.65,11.00,29.71,33.00,27.29,57.32,193.75,328.74,170.81,35.98,92.68,0.00,4.24,11.38,31.40,40.36,10.73,6.68,6.06,5.00,0,휴식 (Relax)
328.00,572.00,168.00,627.00,20.00,18.31,8.00,47.07,80.40,37.53,8.00,19.81,56.00,30.08,45.38,118.19,152.86,112.78,56.38,54.28,1.00,40.49,26.39,69.54,43.84,15.62,41.51,30.86,66.00,101.21,132.71,268.66,252.96,100.69,43.17,22.56,76.00,8.90,5.08,22.50,50.00,23.72,19.55,12.80,18.00,0,휴식 (Relax)
344.00,561.00,125.00,520.00,28.00,50.07,38.08,78.94,48.66,21.55,26.94,35.96,24.00,19.07,9.67,104.89,173.36,122.96,72.94,13.52,43.00,20.59,12.78,53.14,59.68,35.14,55.29,48.88,86.00,53.01,85.93,232.95,283.10,156.16,145.92,101.63,183.00,19.69,15.96,30.23,44.28,22.15,13.24,2.05,7.00,0,휴식 (Relax)
304.00,551.00,135.00,572.00,39.00,25.88,22.67,70.72,53.67,15.72,51.83,67.66,8.00,83.79,71.95,164.82,125.25,57.98,10.38,77.60,22.00,14.07,35.16,66.68,51.16,31.48,58.67,21.94,59.00,109.35,142.39,292.00,226.36,102.47,119.21,38.62,117.00,14.80,12.01,25.22,49.77,27.95,16.90,3.99,1.00,0,휴식 (Relax)
312.00,594.00,145.00,616.00,39.00,28.74,36.23,85.48,40.00,25.02,48.98,52.55,8.00,63.55,56.68,151.48,143.12,54.48,11.63,98.70,44.00,9.82,30.77,61.95,56.14,36.46,63.26,17.69,54.00,44.43,85.36,249.39,268.76,140.96,165.32,50.55,52.00,14.85,19.71,31.13,46.39,22.94,3.91,9.61,14.00,0,휴식 (Relax)
328.00,627.00,151.00,638.00,39.00,19.66,21.97,75.46,51.22,39.70,61.17,42.61,24.00,54.00,93.21,195.75,120.60,24.11,58.06,60.73,22.00,7.14,31.00,63.22,57.27,32.32,48.85,29.45,70.00,61.78,121.68,312.53,213.03,67.18,70.09,50.42,150.00,21.52,27.65,38.89,38.47,16.58,10.93,2.41,6.00,0,휴식 (Relax)
320.00,583.00,140.00,561.00,24.00,15.83,22.08,80.14,46.65,39.93,53.30,44.42,16.00,39.93,71.50,176.48,142.51,23.38,76.76,68.18,44.00,7.14,31.00,63.22,57.27,32.32,48.85,29.45,70.00,7.64,66.70,263.65,264.09,111.55,69.44,100.14,205.00,3.86,21.57,39.95,39.85,6.86,25.20,17.61,12.00,0,휴식 (Relax)
328.00,551.00,151.00,540.00,24.00,15.83,22.08,80.14,46.65,39.93,53.30,44.42,16.00,34.05,60.46,191.65,148.08,71.68,79.18,42.65,10.00,10.63,20.64,57.95,60.54,25.48,44.45,28.77,59.00,104.44,79.64,298.04,249.88,76.79,52.05,71.84,96.00,8.16,31.41,51.90,28.64,5.14,23.35,6.75,0.00,0,휴식 (Relax)
304.00,551.00,145.00,561.00,36.00,38.65,4.88,80.86,40.00,31.63,54.04,59.25,40.00,54.09,89.21,223.64,117.75,58.54,51.05,61.97,22.00,5.99,22.90,54.62,65.19,28.84,40.10,31.57,54.00,114.89,90.56,308.97,238.92,65.82,50.44,63.94,107.00,3.42,23.87,48.77,32.80,11.07,29.97,7.93,8.00,0,휴식 (Relax)
320.00,616.00,145.00,616.00,33.00,38.65,4.88,80.86,40.00,31.63,54.04,59.25,40.00,48.94,52.12,211.89,139.63,98.38,10.16,104.79,66.00,1.18,22.36,49.87,67.12,24.34,44.96,27.34,59.00,80.80,70.98,298.03,249.84,63.74,96.63,27.05,162.00,7.40,22.45,52.64,29.00,12.37,25.18,4.20,3.00,0,휴식 (Relax)
344.00,605.00,168.00,627.00,33.00,22.86,35.79,66.73,56.57,28.12,93.29,19.42,0.00,75.00,61.15,240.42,115.43,80.43,33.56,72.90,33.00,36.86,27.32,60.77,36.24,43.04,40.29,64.97,21.00,96.38,116.13,347.22,198.15,8.76,50.40,72.07,107.00,1.41,19.68,47.53,33.42,18.36,23.12,3.78,3.00,0,휴식 (Relax)
328.00,572.00,140.00,551.00,28.00,28.88,42.14,73.91,51.22,20.53,87.00,26.56,8.00,31.73,21.02,208.29,151.09,115.40,66.51,48.63,11.00,32.31,26.95,55.90,40.22,42.30,44.87,69.76,16.00,55.01,44.04,289.79,245.07,84.72,102.14,159.00,20.00,9.69,10.78,50.78,27.86,17.94,19.69,10.10,8.00,0,휴식 (Relax)
304.00,561.00,130.00,540.00,33.00,7.75,44.36,58.57,71.55,31.37,88.09,46.71,32.00,12.96,23.02,230.11,134.12,84.76,67.17,60.38,33.00,24.82,49.11,57.90,33.14,67.56,23.16,52.03,42.00,90.40,106.42,344.30,189.17,88.27,29.53,87.05,107.00,7.84,12.77,48.78,29.73,19.92,18.24,12.10,10.00,0,휴식 (Relax)
304.00,594.00,151.00,616.00,36.00,26.06,74.75,81.69,64.00,14.60,64.34,33.74,0.00,2.40,16.71,219.36,144.81,91.26,77.28,64.08,44.00,20.86,39.18,46.95,44.10,74.17,26.21,51.14,53.00,77.53,58.69,294.11,238.20,142.79,71.58,86.05,162.00,6.33,19.58,46.41,28.07,17.53,26.24,5.86,2.00,0,휴식 (Relax)
328.00,616.00,151.00,638.00,36.00,14.11,55.61,62.70,88.00,38.53,40.55,48.17,24.00,63.88,73.48,217.93,144.59,34.36,31.34,89.81,21.00,18.90,37.97,41.69,47.93,82.69,11.85,46.97,37.00,141.34,101.67,312.10,218.19,144.54,34.49,73.09,75.00,10.57,21.81,50.59,23.09,13.31,22.94,8.24,7.00,0,휴식 (Relax)
320.00,583.00,140.00,572.00,28.00,14.11,55.61,62.70,88.00,38.53,40.55,48.17,24.00,53.72,64.54,207.33,155.33,40.50,38.60,100.03,32.00,20.00,34.13,37.52,52.55,87.54,6.88,44.81,32.00,97.74,58.80,268.16,262.15,188.47,78.31,87.36,31.00,0.51,26.46,42.15,24.70,6.63,26.83,16.10,18.00,0,휴식 (Relax)
312.00,551.00,135.00,520.00,26.00,9.69,45.96,46.70,104.00,50.73,45.96,32.25,8.00,55.84,93.86,170.71,186.46,39.59,37.49,24.22,44.00,27.73,24.14,29.52,56.94,86.58,15.14,52.39,42.00,32.02,104.42,241.98,283.77,174.26,78.98,132.95,149.00,10.31,36.38,46.82,15.81,5.12,17.22,12.45,8.00,0,휴식 (Relax)
312.00,583.00,135.00,594.00,45.00,19.63,30.84,42.80,105.22,38.39,52.55,46.87,24.00,45.87,82.87,162.52,195.53,47.55,46.24,15.79,55.00,60.51,24.88,51.18,33.12,58.27,30.31,22.07,9.00,63.84,136.55,272.87,253.62,141.90,46.10,102.00,116.00,16.22,23.03,22.77,36.40,24.28,11.83,31.76,17.00,0,휴식 (Relax)
312.00,605.00,145.00,627.00,39.00,46.75,11.79,72.87,73.76,38.63,22.38,31.56,8.00,4.48,62.02,123.78,222.87,73.31,56.78,50.68,11.00,41.96,4.93,36.54,51.55,41.92,49.74,5.58,11.00,46.34,118.21,216.69,314.80,118.95,86.26,5.22,9.00,27.17,30.87,25.36,34.06,24.72,1.68,20.77,6.00,0,휴식 (Relax)
336.00,605.00,156.00,616.00,28.00,31.28,22.38,59.04,86.53,29.05,11.79,51.26,40.00,50.96,102.28,143.62,187.04,36.96,8.02,35.88,65.00,32.35,17.27,50.49,49.25,39.99,41.69,24.76,10.00,90.20,158.01,250.78,284.40,76.02,47.49,40.08,53.00,18.04,20.05,14.40,45.04,35.66,11.66,11.64,5.00,0,휴식 (Relax)
336.00,572.00,140.00,561.00,26.00,44.72,40.25,79.95,67.88,50.73,13.11,28.47,16.00,32.67,81.19,121.97,205.32,55.90,15.45,54.17,87.00,31.78,13.50,46.17,54.23,35.86,44.76,29.67,15.00,47.14,109.73,205.95,328.12,60.05,68.78,93.96,108.00,17.23,17.10,16.50,46.32,31.81,7.97,20.26,8.00,0,휴식 (Relax)
320.00,561.00,130.00,540.00,36.00,37.27,38.77,74.26,73.76,56.33,20.42,20.48,8.00,60.47,78.59,126.81,179.23,45.90,59.64,12.58,21.00,29.95,25.49,53.73,59.93,54.93,23.88,16.48,6.00,100.03,133.69,252.80,284.62,42.97,29.32,49.82,10.00,19.33,19.58,19.46,43.42,29.22,5.18,18.71,5.00,0,휴식 (Relax)
312.00,594.00,145.00,616.00,39.00,29.27,44.35,77.89,68.82,59.56,18.37,28.15,16.00,49.57,68.57,115.83,189.93,56.74,69.21,22.13,10.00,30.99,20.65,48.80,64.47,55.40,20.09,17.91,11.00,45.49,79.81,200.63,337.41,70.48,79.45,95.77,45.00,7.32,6.00,21.60,49.40,19.20,10.20,22.96,10.00,0,휴식 (Relax)
336.00,616.00,156.00,638.00,36.00,36.85,36.36,69.96,75.47,67.53,24.45,34.91,24.00,20.67,22.08,105.20,186.30,75.50,79.21,51.48,75.00,34.37,18.76,48.01,66.65,59.76,20.69,14.66,6.00,54.16,49.21,220.66,326.19,134.76,88.93,2.26,53.00,8.17,13.63,33.56,39.70,14.58,7.08,14.24,2.00,0,휴식 (Relax)
320.00,583.00,140.00,561.00,24.00,50.27,28.46,67.75,68.35,64.35,9.27,27.81,8.00,52.36,50.14,136.40,154.57,46.92,48.25,19.81,43.00,29.79,16.85,43.69,71.11,63.70,18.60,10.87,1.00,54.16,49.21,220.66,326.19,134.76,88.93,2.26,53.00,10.50,4.50,31.87,48.41,5.37,18.97,8.30,14.00,0,휴식 (Relax)
312.00,551.00,140.00,561.00,31.00,45.55,25.60,60.52,75.89,71.57,10.61,30.27,0.00,21.80,30.45,113.95,176.01,87.70,30.41,50.29,22.00,24.80,12.78,39.73,73.43,65.10,23.17,15.51,6.00,33.23,32.59,208.03,332.61,157.92,58.63,53.75,2.00,12.41,5.85,33.76,47.20,7.37,17.49,9.17,12.00,0,휴식 (Relax)
320.00,583.00,140.00,572.00,36.00,47.80,13.86,45.11,72.00,56.57,13.86,20.40,24.00,42.86,52.43,133.79,157.26,71.07,8.41,28.78,0.00,9.22,15.26,55.02,50.91,37.23,11.45,12.59,22.00,80.96,86.66,257.71,278.92,104.71,55.14,19.40,53.00,9.43,2.87,31.86,49.65,9.09,17.71,11.72,9.00,0,휴식 (Relax)
320.00,616.00,151.00,649.00,39.00,53.53,11.31,50.47,64.00,52.05,11.31,24.11,16.00,8.15,36.31,106.62,185.26,97.59,38.75,28.06,44.00,6.80,10.25,45.18,59.20,33.17,22.38,23.33,33.00,18.49,61.92,200.52,316.76,137.76,95.22,110.62,151.00,5.60,9.66,38.59,44.38,16.91,10.90,1.21,20.00,0,휴식 (Relax)
336.00,605.00,162.00,605.00,28.00,25.37,40.79,24.49,71.55,20.91,40.79,54.11,16.00,49.22,76.43,138.21,157.26,61.03,25.97,19.16,0.00,33.94,39.73,58.50,47.17,19.92,20.87,17.23,1.00,83.48,125.73,249.10,263.31,78.69,103.66,50.32,86.00,3.37,5.95,34.00,49.04,21.07,6.83,4.04,25.00,0,휴식 (Relax)
328.00,561.00,140.00,561.00,26.00,8.66,62.20,42.28,51.22,32.21,24.71,30.66,8.00,19.25,50.11,110.92,185.65,79.31,58.40,47.90,33.00,25.55,31.24,48.12,58.14,12.96,31.87,27.70,10.00,39.18,88.50,204.00,300.66,104.04,156.68,49.29,31.00,9.75,12.60,35.89,46.53,24.44,16.83,6.91,15.00,0,휴식 (Relax)
312.00,551.00,140.00,561.00,33.00,20.80,57.67,31.23,62.48,31.23,33.97,20.80,24.00,58.89,83.68,143.41,165.47,30.68,40.62,41.75,32.00,24.16,33.23,49.16,58.42,23.96,25.41,16.91,1.00,79.14,131.00,237.75,254.17,40.62,100.69,46.17,108.00,12.14,15.49,38.88,43.57,21.48,14.84,3.93,18.00,0,휴식 (Relax)
320.00,616.00,140.00,605.00,42.00,20.80,57.67,31.23,62.48,31.23,33.97,20.80,24.00,26.24,51.24,112.86,198.22,60.06,72.81,73.02,65.00,24.16,33.23,49.16,58.42,23.96,25.41,16.91,1.00,46.50,98.12,205.61,283.10,65.76,112.21,68.83,141.00,12.20,14.61,35.11,43.57,22.94,21.70,10.79,32.00,0,휴식 (Relax)
320.00,616.00,151.00,638.00,33.00,13.73,49.79,23.44,68.82,38.14,29.14,19.17,16.00,46.03,58.09,132.84,201.64,51.86,42.68,13.05,0.00,15.57,18.98,42.57,62.39,37.03,13.18,28.62,15.00,72.98,93.97,221.68,252.24,77.17,33.39,100.35,23.00,18.50,21.30,41.45,36.67,15.94,14.70,4.20,25.00,0,휴식 (Relax)
328.00,572.00,145.00,572.00,28.00,14.42,37.73,26.60,60.93,42.53,29.67,29.33,32.00,35.06,47.12,122.00,212.40,62.79,51.86,15.38,11.00,13.26,20.12,50.88,53.23,30.08,23.00,23.97,5.00,52.09,72.30,199.68,274.22,95.82,30.57,121.88,1.00,1.61,11.07,31.67,43.27,18.83,13.17,14.96,8.00,0,휴식 (Relax)
312.00,551.00,135.00,551.00,26.00,14.42,37.73,26.60,60.93,42.53,29.67,29.33,32.00,27.77,35.44,122.52,229.51,69.97,14.07,42.12,43.00,18.59,11.71,43.31,58.25,36.15,31.57,26.75,5.00,53.04,43.08,185.82,281.60,128.25,95.76,49.92,77.00,11.92,21.70,41.79,33.24,7.11,2.66,2.99,21.00,0,휴식 (Relax)
304.00,561.00,125.00,551.00,36.00,17.86,25.25,35.57,56.57,44.44,60.95,5.00,0.00,71.37,78.82,166.10,190.54,27.19,32.38,25.42,1.00,48.81,19.29,62.17,37.12,13.46,36.33,20.47,26.00,116.13,105.92,247.41,218.87,70.40,50.38,103.38,12.00,4.86,14.56,35.50,39.41,12.43,6.49,7.85,29.00,0,휴식 (Relax)
312.00,616.00,145.00,638.00,42.00,40.53,22.18,58.56,32.98,20.48,44.05,19.90,24.00,32.34,52.24,149.59,216.28,51.44,67.33,64.24,45.00,43.99,16.12,57.78,41.63,17.83,41.26,21.82,31.00,44.77,62.44,208.31,252.68,116.96,107.48,166.97,65.00,14.90,19.28,43.53,32.76,9.23,14.22,8.15,13.00,0,휴식 (Relax)
328.00,627.00,151.00,627.00,33.00,34.28,26.15,57.77,35.78,19.60,46.17,27.12,32.00,59.75,100.16,206.21,171.71,38.48,75.35,6.89,21.00,30.61,29.03,63.91,38.21,14.42,27.22,30.38,10.00,74.45,134.00,277.34,187.21,63.08,38.67,127.19,22.00,11.91,16.29,40.67,35.69,12.14,17.05,10.99,10.00,0,휴식 (Relax)
312.00,561.00,135.00,540.00,28.00,34.28,26.15,57.77,35.78,19.60,46.17,27.12,32.00,27.26,69.25,182.88,199.70,70.76,107.89,37.82,54.00,32.73,19.37,53.93,48.17,24.32,31.76,39.76,0.00,11.22,70.65,220.32,249.82,133.16,97.96,160.89,98.00,5.72,10.94,41.38,35.23,14.92,15.44,7.24,21.00,0,휴식 (Relax)
304.00,561.00,135.00,561.00,31.00,47.87,19.60,40.83,57.69,24.62,19.60,32.68,0.00,28.20,72.06,212.86,179.23,78.70,72.06,20.68,1.00,38.41,21.25,51.45,54.12,27.33,11.60,18.91,21.00,75.79,107.17,262.36,222.60,105.40,41.43,99.91,21.00,9.19,14.61,46.30,30.27,10.14,11.59,5.40,16.00,0,휴식 (Relax)
320.00,605.00,145.00,627.00,45.00,47.87,19.60,40.83,57.69,24.62,19.60,32.68,0.00,9.06,51.83,191.92,200.66,100.58,82.04,42.64,23.00,37.94,16.34,46.72,58.60,32.28,7.01,14.95,26.00,38.90,41.55,200.62,287.54,167.57,92.58,50.95,45.00,12.10,7.01,39.26,39.05,23.11,9.42,19.76,5.00,0,휴식 (Relax)
320.00,627.00,151.00,627.00,33.00,48.62,13.86,34.19,64.50,26.83,13.86,24.71,8.00,74.54,30.78,201.94,198.76,106.49,16.21,38.88,53.00,43.11,9.21,40.18,64.07,31.29,14.46,21.92,15.00,89.16,54.12,212.61,284.78,137.30,39.50,109.77,21.00,13.85,8.87,41.03,37.54,21.65,8.21,18.21,3.00,0,휴식 (Relax)
320.00,572.00,145.00,561.00,24.00,48.62,13.86,34.19,64.50,26.83,13.86,24.71,8.00,64.02,20.33,190.97,209.61,117.47,8.42,49.88,64.00,47.39,12.34,43.38,60.00,26.57,13.85,19.97,20.00,78.16,43.20,201.62,295.75,146.12,43.56,120.73,32.00,10.85,11.44,32.88,46.40,28.49,15.98,16.78,9.00,0,휴식 (Relax)
328.00,551.00,145.00,551.00,28.00,55.38,20.91,42.14,57.69,30.57,8.66,19.16,16.00,45.04,60.22,171.80,229.03,113.50,72.85,27.03,1.00,41.44,6.36,37.79,63.78,22.86,18.75,21.45,26.00,38.01,79.57,181.82,318.10,81.77,57.56,55.51,66.00,19.65,22.44,39.82,40.72,18.84,6.05,13.62,2.00,0,휴식 (Relax)
320.00,583.00,145.00,594.00,36.00,39.58,8.66,37.24,50.60,25.71,20.91,21.95,32.00,62.38,80.47,191.25,209.35,91.88,58.54,10.90,21.00,25.33,13.99,41.57,52.20,19.12,5.11,15.37,9.00,48.14,90.01,192.24,307.92,73.81,52.45,54.21,55.00,11.67,17.75,32.61,48.10,22.12,9.85,13.54,10.00,0,휴식 (Relax)
320.00,616.00,151.00,649.00,39.00,31.79,13.86,44.42,43.08,33.29,13.86,16.14,24.00,11.58,75.66,154.20,240.07,75.95,88.36,49.06,76.00,33.85,5.98,30.59,61.40,11.78,14.43,16.37,2.00,39.95,91.84,150.48,351.43,32.61,118.47,82.87,33.00,3.87,25.18,36.35,45.18,9.75,3.45,19.72,3.00,0,휴식 (Relax)
344.00,605.00,156.00,616.00,28.00,60.44,18.49,30.64,43.08,58.87,32.65,19.74,8.00,44.65,125.60,188.67,201.42,31.32,34.82,29.31,22.00,44.91,19.51,29.38,55.08,27.78,7.44,22.37,14.00,93.57,145.66,197.27,308.69,24.45,69.88,72.41,22.00,3.15,20.19,31.37,50.16,11.31,8.26,24.46,8.00,0,휴식 (Relax)
328.00,561.00,140.00,530.00,24.00,66.68,25.30,38.14,35.78,59.92,25.30,15.38,0.00,28.04,81.21,140.13,245.81,25.01,46.29,79.27,33.00,44.91,19.51,29.38,55.08,27.78,7.44,22.37,14.00,48.21,95.26,148.20,363.27,92.74,95.26,129.33,97.00,19.15,15.97,31.14,51.92,7.00,14.87,6.83,10.00,0,휴식 (Relax)
304.00,561.00,135.00,561.00,33.00,60.04,25.30,30.26,45.25,75.68,25.30,22.44,16.00,80.27,99.22,159.54,221.45,44.90,10.17,26.05,22.00,45.90,21.62,24.43,53.01,40.79,9.84,6.40,2.00,101.55,139.66,203.92,320.36,108.74,18.42,53.24,20.00,19.15,15.97,31.14,51.92,7.00,14.87,6.83,10.00,0,휴식 (Relax)
320.00,605.00,151.00,638.00,42.00,61.23,32.65,36.79,40.00,71.84,18.49,15.23,8.00,48.49,66.95,126.92,252.70,73.11,42.84,24.95,55.00,42.64,15.91,19.07,59.01,45.60,15.46,1.73,8.00,36.16,74.05,151.98,379.75,174.03,52.39,15.61,46.00,15.75,4.92,27.27,57.31,18.64,15.09,17.80,4.00,0,휴식 (Relax)
336.00,616.00,156.00,627.00,33.00,51.48,14.78,22.37,60.93,89.60,6.12,9.27,16.00,44.05,34.46,129.22,241.25,98.84,49.00,44.73,10.00,29.09,9.14,12.89,62.97,53.97,19.14,20.56,13.00,40.75,67.61,194.43,356.20,169.78,42.81,60.61,30.00,20.40,10.39,33.75,51.31,14.99,8.60,13.57,3.00,0,휴식 (Relax)
336.00,572.00,140.00,551.00,24.00,42.39,40.06,51.58,56.57,64.19,26.45,25.27,16.00,54.17,44.09,140.17,230.26,88.57,38.03,36.69,1.00,20.50,24.14,27.87,49.19,39.40,4.14,9.94,2.00,40.75,67.61,194.43,356.20,169.78,42.81,60.61,30.00,9.73,4.36,27.17,58.73,25.13,4.36,17.54,15.00,0,휴식 (Relax)
312.00,551.00,140.00,551.00,28.00,42.39,40.06,51.58,56.57,64.19,26.45,25.27,16.00,10.99,27.85,123.88,236.25,109.61,49.84,63.48,66.00,24.11,20.91,26.53,51.62,39.17,3.59,11.36,7.00,59.53,42.16,211.43,348.17,138.89,66.73,63.85,57.00,5.63,18.27,38.28,49.41,17.80,9.81,8.38,1.00,0,휴식 (Relax)
320.00,605.00,145.00,616.00,39.00,48.06,38.08,55.98,58.24,56.19,26.94,18.98,8.00,32.79,49.56,144.42,214.90,88.37,28.36,42.06,44.00,29.90,22.71,31.74,46.62,33.66,2.54,7.63,1.00,70.53,53.13,222.43,337.18,129.20,56.26,53.78,46.00,5.38,14.37,33.68,54.38,22.91,14.95,7.21,5.00,0,휴식 (Relax)
320.00,605.00,156.00,638.00,33.00,40.58,33.94,48.26,65.97,53.70,33.94,17.56,0.00,20.97,41.34,119.62,229.93,94.84,39.38,5.10,0.00,9.70,7.83,20.85,61.22,22.94,22.42,16.52,20.00,41.02,68.05,206.97,354.19,79.82,89.56,44.44,52.00,9.86,16.25,35.75,51.88,19.35,14.00,9.50,0.00,0,휴식 (Relax)
328.00,572.00,145.00,572.00,28.00,16.58,13.86,51.68,75.47,37.29,13.86,22.98,24.00,31.40,51.46,127.18,220.03,83.84,28.46,7.98,11.00,8.46,6.80,29.86,55.57,15.45,17.83,11.21,10.00,51.69,78.77,217.44,343.74,70.02,78.77,34.96,41.00,6.86,13.36,32.76,54.56,20.90,16.23,12.28,3.00,0,휴식 (Relax)
320.00,561.00,135.00,540.00,28.00,16.58,13.86,51.68,75.47,37.29,13.86,22.98,24.00,13.52,21.48,88.24,242.84,77.89,35.16,49.71,55.00,6.52,12.70,24.07,64.40,6.33,24.55,16.31,0.00,37.21,79.32,174.87,380.38,54.25,79.32,74.21,46.00,11.37,7.98,32.39,49.50,5.55,2.07,4.78,14.00,0,휴식 (Relax)
304.00,561.00,135.00,572.00,39.00,30.13,28.46,47.67,85.04,44.03,9.27,27.73,8.00,79.48,80.86,120.13,193.20,21.47,31.10,33.27,11.00,18.34,28.53,36.67,59.23,15.48,8.85,5.63,16.00,91.97,133.69,219.89,334.45,13.30,27.59,19.23,9.00,5.45,2.07,26.47,55.44,9.97,7.98,10.69,20.00,0,휴식 (Relax)
312.00,616.00,145.00,638.00,36.00,36.21,33.05,54.88,79.20,48.82,13.69,21.51,16.00,42.77,49.94,80.78,227.50,22.61,70.79,75.54,55.00,18.34,28.53,36.67,59.23,15.48,8.85,5.63,16.00,40.60,87.46,164.80,384.67,90.04,50.15,59.17,86.00,8.21,10.16,22.32,55.23,7.48,7.80,5.85,8.00,0,휴식 (Relax)
352.00,616.00,162.00,627.00,28.00,31.39,42.20,40.97,97.65,72.01,37.67,9.31,40.00,64.30,92.44,112.46,197.36,58.72,69.36,18.00,10.00,19.14,34.62,44.34,58.22,31.89,16.47,20.95,1.00,94.66,139.05,213.69,335.49,90.83,48.78,25.46,10.00,8.21,10.16,22.32,55.23,7.48,7.80,5.85,8.00,0,휴식 (Relax)
328.00,561.00,140.00,561.00,28.00,36.27,50.16,46.96,93.30,71.02,32.68,11.83,32.00,43.59,71.26,92.52,218.22,75.40,90.50,26.64,32.00,15.52,29.71,39.52,63.20,34.87,18.36,25.88,6.00,61.69,106.81,184.56,362.85,123.80,81.72,57.72,23.00,3.14,12.38,16.84,56.52,9.86,6.55,3.02,16.00,0,휴식 (Relax)
304.00,561.00,130.00,540.00,33.00,22.73,39.19,33.92,107.33,85.64,39.19,26.96,16.00,11.50,67.40,111.90,208.29,102.41,51.73,31.21,23.00,10.08,16.74,42.76,68.15,48.34,31.33,13.31,15.00,54.76,106.29,226.79,317.86,133.45,81.05,55.04,86.00,8.03,18.32,20.77,50.70,4.65,2.13,5.14,10.00,0,휴식 (Relax)
304.00,594.00,145.00,616.00,39.00,19.99,60.55,60.71,96.33,64.49,6.77,14.28,56.00,21.79,77.48,122.68,197.31,92.27,49.24,23.72,12.00,17.59,24.39,53.76,58.14,38.94,20.62,14.55,4.00,54.76,106.29,226.79,317.86,133.45,81.05,55.04,86.00,3.00,11.85,11.75,54.56,13.47,9.46,16.11,1.00,0,휴식 (Relax)
320.00,594.00,156.00,627.00,33.00,26.30,68.52,67.36,88.36,58.61,13.01,6.30,48.00,20.48,48.87,120.52,198.22,98.81,30.94,36.66,21.00,15.41,8.98,50.04,66.84,45.28,19.06,22.82,12.00,51.33,54.27,232.75,306.20,142.60,65.21,56.32,11.00,11.92,17.98,17.63,46.65,10.14,8.29,8.25,8.00,0,휴식 (Relax)
328.00,572.00,145.00,551.00,24.00,23.20,56.08,75.10,89.44,37.50,36.54,18.77,24.00,31.14,48.86,131.00,187.30,87.82,40.50,26.32,10.00,23.52,11.05,59.11,59.40,35.49,11.05,20.13,2.00,41.33,46.96,222.83,316.19,152.59,75.05,66.27,21.00,5.54,9.23,10.90,51.86,18.80,16.99,9.22,17.00,0,휴식 (Relax)
320.00,551.00,140.00,551.00,28.00,23.20,56.08,75.10,89.44,37.50,36.54,18.77,24.00,24.17,34.34,105.33,200.93,82.13,93.17,27.69,44.00,12.61,1.00,51.88,67.62,35.47,1.00,26.06,9.00,50.08,40.10,194.96,330.85,148.08,50.75,30.49,66.00,15.48,12.95,21.93,42.01,15.97,9.71,7.78,3.00,0,휴식 (Relax)
320.00,594.00,140.00,605.00,39.00,10.46,41.57,71.99,93.64,21.83,41.57,10.92,40.00,46.06,34.74,123.30,180.75,60.57,81.96,11.65,22.00,4.57,15.31,61.64,59.03,20.28,16.72,13.15,7.00,71.99,57.34,214.40,309.90,126.37,29.93,11.36,44.00,9.49,7.00,18.00,46.87,21.90,14.60,11.93,3.00,0,휴식 (Relax)
320.00,594.00,156.00,627.00,36.00,9.80,26.53,86.50,78.79,34.07,26.53,14.85,24.00,28.22,48.46,106.11,191.05,50.91,92.09,25.92,0.00,11.61,12.66,47.08,73.74,13.88,30.49,8.25,23.00,34.62,83.35,164.75,341.63,106.85,49.04,66.21,32.00,5.27,9.79,26.57,41.44,19.06,4.71,11.44,9.00,0,휴식 (Relax)
344.00,605.00,156.00,605.00,28.00,28.70,47.98,67.72,96.33,43.43,11.40,40.80,8.00,51.62,102.37,134.30,147.32,34.14,40.55,28.20,54.00,26.82,28.30,51.23,69.72,5.04,28.30,16.35,7.00,81.47,137.30,201.36,296.44,58.05,29.47,30.61,22.00,5.27,9.79,26.57,41.44,19.06,4.71,11.44,9.00,0,휴식 (Relax)
320.00,561.00,140.00,551.00,28.00,28.70,47.98,67.72,96.33,43.43,11.40,40.80,8.00,10.33,79.34,93.96,179.62,32.05,14.03,70.41,98.00,22.85,24.49,46.23,74.67,4.70,32.44,21.32,2.00,17.31,104.31,145.83,338.70,35.02,93.32,77.95,87.00,5.76,9.55,30.57,39.12,14.36,6.98,3.18,2.00,0,휴식 (Relax)
312.00,572.00,130.00,561.00,33.00,21.92,52.59,60.23,101.82,51.39,7.10,37.99,0.00,23.96,98.47,102.74,161.53,55.73,20.62,46.22,65.00,25.94,35.39,44.19,75.71,29.25,9.35,8.42,28.00,65.34,156.81,181.61,289.29,42.19,58.91,0.95,10.00,5.76,9.55,30.57,39.12,14.36,6.98,3.18,2.00,0,휴식 (Relax)
320.00,594.00,151.00,616.00,36.00,19.17,60.55,60.68,96.33,49.58,6.77,37.79,8.00,13.09,76.48,80.76,181.18,74.50,37.00,46.83,43.00,20.94,29.39,38.30,81.58,32.63,11.83,14.08,34.00,24.17,113.63,140.01,326.59,73.27,96.64,43.14,34.00,6.09,5.29,29.71,39.32,9.50,12.00,10.48,6.00,0,휴식 (Relax)
336.00,616.00,156.00,649.00,36.00,21.96,49.30,45.46,108.81,63.82,16.06,36.24,24.00,62.68,52.49,80.76,165.47,95.81,57.03,45.45,98.00,5.61,21.33,31.68,88.14,46.52,9.34,7.28,13.00,98.02,108.08,176.34,288.11,140.08,40.42,70.86,75.00,13.81,12.35,37.29,31.40,6.49,4.42,2.96,2.00,0,휴식 (Relax)
328.00,583.00,140.00,572.00,28.00,35.06,57.25,33.81,96.66,49.40,23.71,48.52,0.00,84.31,69.66,102.74,143.69,75.00,35.26,45.85,76.00,6.54,25.22,36.32,83.63,42.24,7.49,2.43,18.00,98.02,108.08,176.34,288.11,140.08,40.42,70.86,75.00,3.88,5.71,31.53,34.89,6.41,10.84,9.90,13.00,0,휴식 (Relax)
320.00,572.00,135.00,540.00,31.00,39.60,65.05,40.64,89.44,44.56,15.77,41.31,8.00,52.14,28.30,93.47,143.69,86.27,37.72,80.58,32.00,10.84,15.46,30.42,88.51,45.13,15.91,8.52,28.00,55.74,48.88,190.15,286.40,189.21,65.28,53.16,23.00,5.33,9.91,35.19,30.53,8.74,6.46,4.98,8.00,0,휴식 (Relax)
312.00,594.00,140.00,605.00,39.00,47.36,38.22,26.99,80.00,9.13,33.15,4.09,48.00,53.01,31.64,114.21,122.00,64.50,15.96,58.67,54.00,32.63,19.86,47.38,70.84,23.13,9.87,13.71,6.00,71.66,66.65,212.15,264.68,168.95,46.99,33.82,1.00,6.34,3.99,25.93,37.48,19.41,12.09,7.66,3.00,0,휴식 (Relax)
312.00,605.00,151.00,649.00,36.00,61.68,46.75,42.96,64.00,11.83,19.36,18.82,32.00,44.18,15.96,92.23,136.95,69.47,31.64,20.69,98.00,22.42,8.88,39.21,78.57,21.66,20.86,24.47,5.00,26.07,29.17,197.04,292.48,192.91,96.54,55.77,87.00,13.47,11.85,29.19,32.45,19.24,4.65,0.36,5.00,0,휴식 (Relax)
336.00,605.00,145.00,583.00,31.00,29.68,15.00,41.25,71.55,31.76,36.21,50.53,0.00,58.77,50.04,128.64,100.66,25.60,22.64,52.90,54.00,16.96,11.45,47.48,69.34,8.31,15.26,14.04,10.00,58.44,71.96,237.92,254.85,150.25,56.45,29.02,44.00,12.01,10.36,27.22,34.13,21.20,4.75,2.29,7.00,0,휴식 (Relax)
312.00,561.00,135.00,551.00,28.00,22.42,9.27,49.24,64.50,32.60,28.46,43.57,8.00,57.18,45.82,105.21,124.81,36.08,55.63,79.77,21.00,15.87,2.19,38.15,77.90,3.87,23.65,16.90,20.00,49.28,56.75,203.50,293.82,148.29,72.62,76.85,21.00,13.05,15.20,26.99,29.83,17.76,7.27,9.04,4.00,0,휴식 (Relax)
304.00,561.00,130.00,561.00,39.00,34.73,16.34,44.87,73.76,48.45,25.08,36.67,24.00,81.22,75.86,124.29,107.94,14.83,40.21,63.99,54.00,27.79,26.40,46.64,69.05,22.26,8.65,15.15,6.00,109.41,119.35,253.17,248.82,84.69,7.57,10.91,45.00,8.99,9.21,21.16,35.69,23.35,11.28,14.91,10.00,0,휴식 (Relax)
320.00,605.00,151.00,616.00,33.00,40.07,19.60,52.03,67.88,45.14,19.60,36.45,16.00,49.43,48.56,93.79,138.83,47.08,65.48,75.13,87.00,24.99,22.17,40.80,74.97,25.37,14.44,18.83,12.00,45.50,73.37,200.64,302.90,62.20,57.70,55.69,110.00,5.82,7.46,17.18,35.06,18.75,13.21,8.69,1.00,0,휴식 (Relax)
336.00,605.00,156.00,627.00,33.00,36.66,27.31,41.79,80.00,57.97,4.69,35.06,0.00,5.08,71.96,111.03,132.46,51.42,19.68,44.06,33.00,29.83,28.53,41.69,74.11,36.18,8.85,19.37,4.00,49.60,119.23,236.29,272.80,23.56,52.00,28.03,34.00,7.43,12.23,21.44,30.07,15.40,8.39,10.20,6.00,0,휴식 (Relax)
320.00,572.00,140.00,551.00,28.00,36.66,27.31,41.79,80.00,57.97,4.69,35.06,0.00,16.92,49.99,89.45,154.39,72.93,33.62,37.38,11.00,29.83,28.53,41.69,74.11,36.17,8.85,19.37,4.00,12.20,66.36,184.35,325.01,49.33,105.93,81.54,20.00,11.43,6.44,14.71,32.70,5.29,4.95,16.15,17.00,0,휴식 (Relax)
320.00,561.00,135.00,561.00,33.00,36.66,27.31,41.79,80.00,57.97,4.69,35.06,0.00,49.01,37.56,89.80,160.16,73.35,6.44,59.27,44.00,10.24,18.10,35.85,78.11,44.19,13.65,6.69,17.00,68.12,66.98,190.90,316.16,84.68,73.00,27.72,46.00,14.34,8.95,16.98,29.97,5.20,1.95,14.93,14.00,0,휴식 (Relax)
312.00,605.00,145.00,638.00,39.00,14.32,42.07,48.34,65.97,26.87,32.34,17.88,32.00,49.01,37.56,89.80,160.16,73.35,6.44,59.27,44.00,2.77,26.71,46.18,67.78,33.58,6.54,12.81,6.00,44.15,36.09,158.19,349.14,114.03,96.12,42.30,79.00,3.96,3.66,9.26,36.12,7.58,9.62,19.11,3.00,0,휴식 (Relax)
336.00,616.00,156.00,627.00,33.00,26.23,26.15,32.63,81.58,19.90,46.17,20.27,48.00,46.56,17.44,74.79,183.08,64.97,48.56,10.83,11.00,16.22,11.92,37.90,75.17,35.95,20.54,28.72,10.00,80.39,42.67,136.07,355.19,137.73,22.66,38.27,3.00,4.57,8.66,13.23,32.56,9.24,6.41,14.92,8.00,0,휴식 (Relax)
328.00,572.00,145.00,551.00,26.00,42.18,20.69,33.98,80.00,9.70,43.31,23.58,32.00,46.56,17.44,74.79,183.08,64.97,48.56,10.83,11.00,31.03,17.33,49.82,63.13,20.95,10.66,15.26,5.00,70.57,34.49,127.04,365.02,147.54,22.47,46.10,7.00,3.52,6.05,8.75,38.01,16.15,11.02,8.39,15.00,0,휴식 (Relax)
312.00,561.00,130.00,540.00,28.00,34.71,16.06,26.01,88.00,2.74,49.30,30.45,24.00,15.84,37.33,58.62,202.83,56.34,58.71,29.72,22.00,16.27,3.76,34.99,78.41,22.75,27.89,18.59,26.00,14.96,80.47,85.81,386.06,151.69,58.54,63.86,69.00,10.34,13.31,15.40,34.01,16.01,3.60,16.36,7.00,0,휴식 (Relax)
312.00,583.00,151.00,616.00,39.00,24.83,10.61,25.94,91.21,26.71,25.60,6.74,48.00,18.18,69.54,86.90,179.07,28.49,27.01,22.42,11.00,17.06,8.40,38.00,75.45,17.85,23.48,14.09,21.00,45.39,112.09,114.22,355.58,118.84,49.20,33.03,36.00,8.23,10.77,13.37,36.77,18.98,4.46,19.22,4.00,0,휴식 (Relax)
328.00,605.00,156.00,638.00,36.00,24.83,10.61,25.94,91.21,26.71,25.60,6.74,48.00,12.82,59.38,72.27,195.85,10.89,10.19,41.89,33.00,14.01,13.76,23.24,89.07,22.00,25.00,2.75,5.00,22.73,96.47,78.10,386.70,104.73,107.17,33.46,30.00,9.88,12.44,18.67,34.53,16.48,3.65,13.94,12.00,0,휴식 (Relax)
320.00,583.00,140.00,551.00,24.00,24.83,10.61,25.94,91.21,26.71,25.60,6.74,48.00,22.83,65.05,78.66,189.25,8.97,11.16,30.91,22.00,14.76,18.66,24.37,86.76,17.19,20.39,4.57,10.00,33.73,105.13,87.13,377.48,94.30,97.45,24.47,19.00,5.30,5.89,12.99,41.44,22.91,9.55,14.78,19.00,0,휴식 (Relax)
312.00,561.00,130.00,540.00,28.00,24.83,10.61,25.94,91.21,26.71,25.60,6.74,48.00,10.41,33.00,47.90,216.95,27.72,33.00,14.72,11.00,18.41,15.26,14.40,95.85,19.25,11.45,14.52,20.00,36.81,42.10,50.16,416.84,70.08,101.63,58.81,46.00,8.75,5.49,19.87,41.30,17.54,10.86,10.81,8.00,0,휴식 (Relax)
320.00,583.00,151.00,616.00,42.00,16.83,17.89,33.25,89.44,27.76,17.89,12.03,40.00,32.24,16.21,54.44,206.67,32.66,30.78,15.93,11.00,18.41,15.26,14.40,95.85,19.25,11.45,14.52,20.00,69.81,42.40,80.45,392.50,41.00,72.25,25.81,13.00,6.80,2.97,14.98,47.27,22.63,16.83,10.64,2.00,0,휴식 (Relax)
320.00,616.00,151.00,627.00,33.00,32.25,17.89,36.52,73.76,18.17,17.89,24.98,24.00,22.92,16.84,43.53,216.67,43.53,40.65,22.92,22.00,12.50,9.27,11.64,101.39,18.32,9.27,10.80,14.00,33.89,16.21,61.60,424.28,22.04,30.78,22.78,31.00,7.90,4.89,15.75,47.52,21.13,15.36,11.09,4.00,0,휴식 (Relax)
320.00,572.00,140.00,561.00,26.00,25.96,10.61,28.53,75.89,10.21,25.60,31.11,16.00,20.11,16.21,42.11,212.45,42.11,30.78,20.11,11.00,7.64,6.35,6.71,99.62,13.82,13.48,12.23,19.00,32.87,14.39,70.41,417.70,12.04,34.68,12.83,21.00,6.20,3.38,13.76,49.50,21.92,15.51,12.49,6.00,0,휴식 (Relax)
320.00,551.00,140.00,540.00,28.00,24.31,6.12,27.54,60.93,22.84,14.78,26.25,32.00,18.72,22.77,33.10,221.79,51.49,29.86,25.66,1.00,6.42,13.99,8.16,90.25,22.60,5.11,15.01,9.00,30.52,31.70,56.35,433.85,19.79,35.88,9.20,0.00,5.21,11.85,14.64,52.20,10.95,9.46,4.32,5.00,0,휴식 (Relax)
320.00,594.00,140.00,605.00,39.00,24.31,6.12,27.54,60.93,22.84,14.78,26.25,32.00,19.03,33.72,25.40,218.22,45.09,22.69,16.23,12.00,6.06,5.41,5.07,86.83,25.26,13.07,25.05,2.00,30.72,42.01,63.02,427.04,12.20,41.68,1.82,11.00,3.84,7.18,8.67,57.87,10.92,5.87,5.18,11.00,0,휴식 (Relax)
312.00,616.00,145.00,638.00,39.00,13.38,22.38,25.24,40.00,45.97,11.79,19.97,8.00,22.64,27.82,21.79,228.73,52.51,12.32,6.60,23.00,15.51,13.99,15.78,76.24,33.52,5.11,14.10,9.00,34.58,38.20,52.74,435.80,21.08,52.62,12.77,22.00,9.37,9.90,9.19,60.01,5.01,11.49,6.22,5.00,0,휴식 (Relax)
336.00,616.00,151.00,616.00,31.00,22.19,11.79,9.24,51.22,56.36,22.38,24.44,8.00,63.97,60.13,23.93,220.10,22.09,55.84,50.07,21.00,10.07,5.98,16.71,73.82,43.18,14.43,7.14,20.00,94.62,91.31,83.90,400.27,51.12,41.73,53.64,43.00,12.34,12.90,12.19,57.27,7.24,9.03,3.83,8.00,0,휴식 (Relax)
312.00,561.00,135.00,540.00,28.00,14.57,10.61,14.45,56.57,54.09,25.60,27.38,16.00,63.97,60.13,23.93,220.10,22.09,55.84,50.07,21.00,10.07,5.98,16.71,73.82,43.18,14.43,7.14,20.00,73.99,72.68,66.22,418.71,66.22,62.56,73.99,64.00,8.32,9.95,11.38,59.54,8.00,9.95,2.32,13.00,0,휴식 (Relax)
312.00,561.00,130.00,551.00,33.00,14.57,10.61,14.45,56.57,54.09,25.60,27.38,16.00,36.48,57.25,65.83,220.10,28.88,73.44,34.08,23.00,11.44,9.46,18.07,73.11,57.50,17.45,12.35,5.00,49.48,99.08,122.04,385.72,122.04,55.08,49.48,23.00,8.25,13.24,17.15,54.38,12.73,4.76,5.64,7.00,0,휴식 (Relax)
320.00,594.00,151.00,638.00,39.00,6.27,6.12,2.89,46.65,47.45,14.78,27.80,32.00,45.03,77.56,79.96,198.22,19.10,51.53,28.46,1.00,14.32,12.95,23.04,68.12,54.60,12.50,9.97,10.00,41.05,88.08,113.31,396.29,131.11,66.08,58.77,34.00,6.03,7.24,14.53,57.80,17.81,1.24,11.64,1.00,0,휴식 (Relax)
336.00,616.00,156.00,627.00,33.00,5.48,8.00,9.79,53.67,53.95,8.00,28.35,40.00,23.75,42.48,104.27,207.76,62.16,32.52,45.15,43.00,14.56,15.81,22.54,69.63,61.46,7.21,15.60,21.00,41.01,63.18,153.42,382.43,163.13,54.45,19.01,42.00,7.61,5.46,20.50,52.40,19.60,6.18,5.81,8.00,0,휴식 (Relax)
328.00,561.00,145.00,540.00,22.00,18.29,24.00,23.27,48.66,41.72,24.00,34.98,24.00,23.75,42.48,104.27,207.76,62.16,32.52,45.15,43.00,27.41,30.71,37.37,55.08,47.66,10.43,4.55,6.00,41.01,63.18,153.42,382.43,163.13,54.45,19.01,42.00,8.02,2.52,16.50,56.59,25.60,11.56,6.96,14.00,0,휴식 (Relax)
320.00,551.00,140.00,551.00,31.00,25.01,30.19,24.99,40.79,39.11,19.20,28.36,32.00,48.91,25.91,108.73,220.03,85.83,3.86,51.68,11.00,16.41,23.42,33.42,59.03,49.65,17.48,10.25,5.00,61.95,13.61,166.57,382.34,167.86,34.36,60.10,23.00,14.99,7.50,21.91,51.40,23.99,10.76,4.02,6.00,0,휴식 (Relax)
288.00,510.00,156.00,500.00,16.00,30.67,45.38,60.50,51.22,6.21,49.20,14.97,72.00,143.90,77.42,203.45,141.45,52.09,92.53,62.45,106.00,16.41,23.42,33.42,59.03,49.65,17.48,10.25,5.00,198.47,149.79,304.57,245.10,35.33,104.61,78.41,115.00,34.98,24.31,40.63,37.44,10.24,11.88,19.91,26.00,1,주먹 쥐기 (Fist)
304.00,530.00,145.00,520.00,16.00,46.25,61.34,71.69,40.00,21.38,35.06,14.13,56.00,194.09,114.82,231.43,111.49,3.53,68.25,51.95,53.00,20.18,19.37,29.33,61.40,47.48,20.71,9.69,0.00,228.17,173.98,317.62,243.00,63.85,87.40,49.91,84.00,42.45,29.04,42.45,44.29,18.13,12.03,12.15,18.00,1,주먹 쥐기 (Fist)
320.00,551.00,140.00,583.00,42.00,38.46,56.32,74.60,46.65,26.52,34.36,21.09,48.00,202.00,117.01,226.61,120.70,6.50,62.85,46.24,63.00,26.79,9.45,33.39,53.01,41.09,10.71,9.74,10.00,196.06,172.12,346.85,200.00,80.45,109.46,41.13,41.00,33.28,32.69,53.81,39.62,27.84,25.44,9.24,4.00,1,주먹 쥐기 (Fist)
312.00,605.00,151.00,616.00,26.00,45.12,55.61,66.60,51.22,24.86,40.55,29.09,40.00,191.70,129.40,248.53,114.34,24.93,42.15,31.80,85.00,26.79,9.45,33.39,53.01,41.09,10.71,9.74,10.00,196.06,172.12,346.85,200.00,80.45,109.46,41.13,41.00,39.31,18.10,42.02,24.04,29.08,39.76,24.07,12.00,1,주먹 쥐기 (Fist)
352.00,561.00,186.00,627.00,28.00,36.47,81.71,83.43,32.98,11.91,72.30,60.00,8.00,201.79,75.03,237.59,61.47,63.57,21.50,36.90,140.00,45.88,37.87,53.50,83.93,48.90,36.88,34.02,45.00,196.06,172.12,346.85,200.00,80.45,109.46,41.13,41.00,40.56,13.25,44.51,23.09,32.91,37.98,19.16,7.00,1,주먹 쥐기 (Fist)
336.00,583.00,105.00,470.00,36.00,46.64,97.14,77.79,48.66,23.20,63.28,47.36,24.00,202.88,84.42,227.89,66.37,64.45,32.50,43.98,151.00,40.39,19.54,71.10,78.10,83.47,69.73,65.13,80.00,180.72,132.78,432.56,219.32,104.31,147.00,132.01,50.00,42.54,20.06,34.71,13.15,41.85,43.54,12.26,3.00,1,주먹 쥐기 (Fist)
266.00,490.00,192.00,551.00,16.00,18.87,83.41,131.54,66.48,73.50,94.12,55.39,78.00,180.57,89.92,278.13,122.80,34.73,86.82,88.17,212.00,41.89,38.45,29.15,26.31,109.59,106.08,109.62,132.00,184.44,126.60,425.58,209.33,114.74,146.84,142.34,61.00,35.90,21.59,38.53,19.10,43.34,55.50,16.25,15.00,1,주먹 쥐기 (Fist)
328.00,572.00,151.00,594.00,22.00,19.17,77.67,128.13,60.96,75.44,102.09,62.52,86.00,168.86,110.88,275.82,130.61,54.51,78.39,75.84,190.00,46.47,44.52,36.94,30.02,114.62,104.63,102.24,121.00,177.00,137.35,420.42,204.85,116.19,139.47,150.72,72.00,25.77,37.94,30.46,14.56,57.75,44.01,7.55,2.00,1,주먹 쥐기 (Fist)
378.00,594.00,231.00,744.00,16.00,78.97,11.77,180.26,118.93,133.15,77.60,4.65,20.00,152.24,130.54,255.08,111.14,42.72,70.13,80.77,212.00,103.61,93.05,119.67,113.00,31.21,81.73,152.00,207.00,276.11,75.67,526.12,305.39,63.49,34.85,221.81,178.00,18.84,58.57,8.23,9.85,42.85,45.90,24.69,21.00,1,주먹 쥐기 (Fist)
405.00,627.00,96.00,510.00,33.00,147.25,60.05,239.18,156.29,99.04,56.96,67.00,89.00,162.56,127.09,262.68,117.07,51.31,60.98,81.17,223.00,79.11,93.63,119.08,132.08,65.48,70.15,184.02,262.00,171.07,83.93,502.38,348.21,60.13,76.36,290.75,284.00,19.21,57.78,9.87,10.82,44.11,45.07,26.68,23.00,1,주먹 쥐기 (Fist)
273.00,520.00,168.00,627.00,33.00,114.51,38.03,245.18,186.23,132.63,50.18,104.65,128.00,121.62,113.02,281.20,152.51,88.60,21.33,79.84,264.00,78.62,66.06,86.74,105.55,93.43,57.60,197.97,295.00,248.97,121.02,428.90,278.37,97.33,156.54,338.72,371.00,22.53,59.87,10.36,15.23,39.37,49.76,22.34,18.00,1,주먹 쥐기 (Fist)
312.00,561.00,130.00,520.00,20.00,114.51,38.03,245.18,186.23,132.63,50.18,104.65,128.00,121.62,113.02,281.20,152.51,88.60,21.33,79.84,264.00,78.62,66.06,86.74,105.55,93.43,57.60,197.97,295.00,227.72,90.02,455.45,258.80,94.16,173.90,349.23,402.00,11.38,47.68,21.82,23.60,40.87,61.74,18.34,5.00,1,주먹 쥐기 (Fist)
312.00,540.00,156.00,583.00,31.00,113.80,45.87,249.46,179.81,130.24,42.38,109.21,136.00,95.11,60.74,299.19,106.67,47.10,65.99,68.67,318.00,75.96,62.93,89.46,109.34,88.71,52.65,196.69,300.00,217.11,65.64,451.51,217.08,145.61,188.32,353.80,347.00,5.04,40.38,27.74,29.07,32.93,58.85,16.87,13.00,1,주먹 쥐기 (Fist)
320.00,520.00,224.00,627.00,11.00,120.06,59.72,240.81,170.58,146.14,56.69,106.48,120.00,142.59,89.24,243.92,87.92,142.64,48.82,129.77,222.00,46.17,98.82,156.65,84.02,143.56,107.96,243.50,232.00,217.11,65.64,451.51,217.08,145.61,188.32,353.80,347.00,18.27,39.32,31.01,22.20,48.08,52.50,31.96,9.00,1,주먹 쥐기 (Fist)
387.00,638.00,125.00,572.00,28.00,84.77,68.89,299.26,125.32,181.86,96.08,135.88,61.00,74.15,15.83,320.79,29.61,183.12,125.68,206.23,145.00,54.42,78.95,152.41,104.02,143.31,116.90,262.60,212.00,197.63,33.99,474.44,195.85,163.34,159.48,328.37,379.00,13.57,34.35,35.01,28.16,47.04,48.02,37.92,15.00,1,주먹 쥐기 (Fist)
320.00,561.00,115.00,530.00,64.00,84.77,68.89,299.26,125.32,181.86,96.08,135.88,61.00,64.62,18.41,324.28,39.46,187.54,119.11,196.69,155.00,76.59,66.70,174.30,106.51,166.17,125.30,237.75,237.00,215.43,52.84,482.15,179.81,183.62,154.67,308.30,400.00,30.69,4.93,66.63,45.61,79.27,81.02,11.23,18.00,1,주먹 쥐기 (Fist)
211.00,540.00,145.00,572.00,26.00,158.53,44.52,363.03,93.26,258.86,152.44,59.23,138.00,34.73,48.06,303.30,53.08,157.68,119.90,220.38,125.00,87.59,71.99,182.79,95.80,158.65,115.02,247.42,226.00,144.48,69.49,410.15,234.39,206.74,205.06,236.63,472.00,40.69,13.35,69.18,40.25,74.46,74.36,14.37,8.00,1,주먹 쥐기 (Fist)
352.00,605.00,162.00,627.00,26.00,111.67,14.49,325.96,141.17,280.80,199.48,17.36,186.00,47.91,116.14,234.15,50.91,192.82,175.06,191.38,200.00,72.14,55.50,188.16,101.24,166.76,99.63,258.60,209.00,43.87,176.48,382.66,194.74,286.40,99.77,334.38,365.00,50.14,22.72,62.01,31.62,68.17,73.97,15.01,18.00,1,주먹 쥐기 (Fist)
378.00,616.00,180.00,594.00,20.00,74.45,54.13,349.68,149.94,318.27,172.86,63.45,128.00,112.90,158.73,246.91,46.23,231.55,112.12,191.36,135.00,55.51,28.16,228.15,66.40,127.34,118.21,247.75,249.00,39.43,184.36,392.24,183.85,277.28,105.73,326.35,376.00,36.01,22.53,83.02,26.31,47.03,61.00,34.40,40.00,1,주먹 쥐기 (Fist)
304.00,540.00,135.00,520.00,20.00,75.14,50.52,341.72,157.49,325.70,176.51,69.91,120.00,58.98,165.62,182.09,105.08,293.21,101.03,188.04,70.00,53.44,25.23,222.18,77.10,125.21,116.97,251.34,265.00,99.99,204.91,322.75,195.00,311.90,130.41,300.81,472.00,35.98,28.33,84.02,20.40,47.72,66.76,28.42,34.00,1,주먹 쥐기 (Fist)
320.00,572.00,125.00,638.00,68.00,73.91,69.25,334.15,170.56,326.62,146.15,58.71,152.00,63.36,155.95,187.42,102.59,294.60,110.03,185.39,59.00,64.72,49.67,270.29,56.57,75.72,166.10,219.85,204.00,92.63,194.54,317.95,205.30,322.82,129.32,303.98,483.00,39.85,21.95,119.25,48.33,25.78,103.43,20.15,6.00,1,주먹 쥐기 (Fist)
296.00,616.00,156.00,649.00,39.00,76.21,109.22,368.16,137.00,288.85,183.27,61.17,112.00,74.23,124.48,169.60,135.20,323.39,77.98,206.00,92.00,69.47,56.76,229.64,107.30,32.70,215.68,185.84,153.00,175.80,81.92,139.33,315.04,324.29,288.62,232.70,304.00,40.68,24.95,121.42,47.17,28.59,102.13,17.35,3.00,1,주먹 쥐기 (Fist)
336.00,627.00,140.00,572.00,24.00,106.93,79.49,315.44,187.86,246.48,222.61,93.19,42.00,166.07,140.26,35.85,204.89,234.88,187.24,100.62,45.00,44.95,10.24,218.92,115.69,73.74,247.98,143.96,101.00,196.63,98.28,134.73,302.63,303.41,270.19,242.89,325.00,40.84,31.00,118.83,39.81,23.93,99.66,25.35,11.00,1,주먹 쥐기 (Fist)
336.00,594.00,120.00,540.00,39.00,114.34,84.99,318.60,183.33,241.81,223.17,89.91,50.00,181.36,162.05,43.67,191.23,221.67,179.59,118.71,23.00,43.11,21.86,189.53,144.84,56.14,250.83,173.47,132.00,145.34,46.13,92.59,348.41,281.31,261.19,288.19,379.00,39.77,37.68,101.92,49.52,18.58,114.81,11.58,6.00,1,주먹 쥐기 (Fist)
266.00,423.00,281.00,594.00,2.00,3.38,27.02,206.66,283.59,134.62,317.25,144.35,162.00,191.96,108.19,128.74,344.70,65.30,300.41,288.85,148.00,68.86,41.59,226.32,166.97,98.13,292.69,223.23,182.00,110.24,138.74,69.68,303.80,196.61,197.74,140.79,229.00,45.22,42.26,109.36,40.50,9.06,128.05,16.32,20.00,1,주먹 쥐기 (Fist)
432.00,627.00,110.00,530.00,24.00,28.37,20.13,217.47,294.29,137.43,343.02,170.47,189.00,191.96,108.19,128.74,344.70,65.30,300.41,288.85,148.00,82.40,54.99,222.95,178.72,88.54,279.16,210.91,168.00,96.68,121.29,56.27,323.75,176.68,182.53,120.97,209.00,52.76,50.95,104.83,48.30,18.03,124.20,8.61,11.00,1,주먹 쥐기 (Fist)
336.00,551.00,151.00,561.00,48.00,88.91,81.89,182.84,352.09,76.50,318.05,108.68,126.00,162.15,80.67,150.81,374.16,34.31,285.25,266.35,117.00,65.67,48.64,239.69,188.22,97.55,271.15,200.80,151.00,157.68,151.04,59.35,334.77,157.16,116.63,72.66,143.00,37.95,38.92,119.77,43.57,28.07,130.45,7.69,4.00,1,주먹 쥐기 (Fist)
259.00,572.00,140.00,572.00,24.00,51.64,53.03,235.79,374.63,56.56,345.17,73.36,73.00,151.20,78.96,160.68,371.01,39.67,281.97,270.62,128.00,74.18,44.15,234.53,180.24,107.29,274.48,198.96,141.00,106.00,165.07,96.76,284.93,204.38,91.28,82.53,91.00,34.04,38.97,121.04,47.52,29.21,126.64,5.76,0.00,1,주먹 쥐기 (Fist)
344.00,572.00,174.00,616.00,36.00,62.55,44.10,226.72,346.95,87.19,376.70,77.30,41.00,123.85,102.49,162.23,340.33,62.53,310.41,271.70,96.00,86.40,28.64,245.90,191.85,105.68,258.22,195.61,159.00,79.25,196.34,125.07,296.79,183.00,80.45,60.03,124.00,30.11,42.86,117.37,48.51,24.22,131.11,6.94,5.00,1,주먹 쥐기 (Fist)
304.00,594.00,135.00,616.00,39.00,61.24,56.05,213.83,338.88,97.45,389.83,88.73,25.00,104.65,175.98,105.85,369.12,42.07,241.71,246.04,170.00,94.50,117.51,163.81,139.46,190.88,176.30,168.62,248.00,84.51,186.69,126.37,286.78,188.89,71.92,51.43,135.00,30.60,70.69,92.48,22.47,44.10,124.89,27.33,23.00,1,주먹 쥐기 (Fist)
288.00,551.00,125.00,540.00,24.00,136.85,154.60,137.21,256.97,164.68,383.73,31.32,124.00,101.92,137.49,191.11,295.41,128.65,226.99,208.86,257.00,94.50,117.51,163.81,139.46,190.88,176.30,168.62,248.00,95.14,180.80,157.69,301.68,157.64,103.89,82.26,103.00,27.62,68.18,91.97,24.84,43.77,127.41,31.29,27.00,1,주먹 쥐기 (Fist)
369.00,638.00,140.00,649.00,51.00,87.88,127.36,121.70,228.62,206.83,421.85,60.62,173.00,126.91,113.76,187.97,257.39,170.35,287.38,173.24,334.00,70.13,120.79,140.07,132.00,205.44,165.98,188.11,223.00,143.98,139.89,136.15,208.06,182.20,204.36,200.48,16.00,16.29,71.05,79.59,17.09,56.14,114.47,21.00,14.00,1,주먹 쥐기 (Fist)
312.00,616.00,140.00,649.00,42.00,35.80,187.65,35.14,150.57,237.17,322.21,81.14,72.00,196.04,80.43,262.56,189.34,211.90,213.52,229.00,258.00,75.09,116.56,143.49,127.12,210.26,161.45,192.97,218.00,218.36,103.67,212.61,269.78,106.75,187.98,136.16,61.00,31.95,57.27,91.00,32.56,67.22,102.57,21.60,2.00,1,주먹 쥐기 (Fist)
328.00,616.00,125.00,540.00,26.00,21.69,163.77,59.07,132.97,261.01,309.35,104.56,48.00,207.03,72.59,268.52,195.26,201.58,219.09,218.32,269.00,108.83,80.77,133.01,124.33,209.09,196.67,156.54,255.00,133.71,182.13,188.26,236.25,128.71,256.20,125.30,148.00,31.95,57.27,91.00,32.56,67.22,102.57,21.60,2.00,1,주먹 쥐기 (Fist)
296.00,540.00,125.00,551.00,51.00,71.59,129.22,115.62,93.06,251.04,299.58,29.09,130.00,142.17,148.55,317.04,138.84,213.32,214.70,143.58,345.00,154.00,74.02,80.58,179.23,158.20,176.79,204.60,200.00,104.26,221.54,227.59,278.29,87.15,214.55,106.60,105.00,59.77,47.29,60.13,6.08,36.37,126.36,51.75,33.00,1,주먹 쥐기 (Fist)
266.00,540.00,145.00,530.00,22.00,104.54,154.54,117.62,130.75,215.79,327.17,55.94,92.00,142.17,148.55,317.04,138.84,213.32,214.70,143.58,345.00,147.90,65.64,87.97,180.01,150.88,182.27,211.47,190.00,106.89,217.70,220.76,276.52,86.96,209.84,100.72,95.00,61.29,48.69,59.19,8.06,37.40,124.39,49.81,31.00,1,주먹 쥐기 (Fist)
361.00,661.00,120.00,616.00,51.00,82.04,113.58,153.07,132.77,188.33,368.08,87.64,51.00,175.85,171.53,329.57,109.04,192.04,303.26,205.20,256.00,149.15,70.57,89.61,175.03,152.80,187.19,213.38,185.00,110.86,209.84,212.28,254.83,107.87,217.70,83.33,73.00,55.48,31.69,49.88,17.89,30.99,115.48,37.64,14.00,1,주먹 쥐기 (Fist)
296.00,583.00,145.00,572.00,24.00,82.04,113.58,153.07,132.77,188.33,368.08,87.64,51.00,170.88,139.91,296.82,76.06,222.66,329.16,224.05,223.00,148.20,77.57,100.60,176.57,141.80,178.28,213.54,196.00,169.88,145.37,135.40,253.16,84.70,148.65,157.97,150.00,60.08,23.64,34.91,28.02,45.67,112.03,43.93,29.00,1,주먹 쥐기 (Fist)
288.00,500.00,151.00,551.00,28.00,77.16,120.89,174.67,150.08,140.86,374.05,88.24,99.00,244.24,62.50,258.19,150.59,165.24,334.78,225.29,350.00,153.23,78.78,96.63,165.74,138.15,177.06,218.39,207.00,190.69,124.44,127.43,273.99,64.78,169.19,137.53,129.00,57.20,22.12,36.37,30.48,47.92,108.80,44.90,33.00,1,주먹 쥐기 (Fist)
296.00,551.00,135.00,561.00,28.00,80.11,110.31,214.01,185.81,154.57,341.71,70.30,59.00,285.27,98.31,297.11,176.24,130.24,298.96,200.73,307.00,165.25,91.52,108.45,169.10,126.98,167.73,207.13,192.00,170.51,138.86,112.29,277.31,52.52,181.71,121.32,108.00,67.47,32.28,44.62,23.32,43.24,97.93,45.11,44.00,1,주먹 쥐기 (Fist)
344.00,605.00,140.00,605.00,45.00,115.37,177.57,210.50,228.71,119.90,264.47,68.48,19.00,106.41,94.76,209.26,333.92,88.19,122.79,124.51,125.00,41.56,58.39,75.57,50.09,56.13,35.10,89.35,51.00,162.18,139.61,102.02,288.11,46.12,183.13,126.35,119.00,24.66,20.24,23.43,25.94,2.85,80.77,54.03,87.00,1,주먹 쥐기 (Fist)
304.00,605.00,145.00,583.00,33.00,46.78,75.42,92.27,158.66,26.98,215.95,155.87,147.00,124.06,75.42,190.76,326.73,108.43,116.32,121.89,103.00,72.33,28.14,43.63,24.17,91.09,0.14,61.96,16.00,147.38,114.08,114.67,283.00,98.89,143.58,130.96,66.00,17.61,29.23,32.31,23.19,11.73,75.98,52.65,78.00,1,주먹 쥐기 (Fist)
304.00,572.00,130.00,510.00,24.00,58.30,89.53,67.61,189.71,54.36,197.95,136.58,115.00,113.66,82.64,208.68,306.74,111.10,128.96,114.88,82.00,51.34,35.11,45.10,44.15,100.37,21.00,43.87,5.00,142.06,161.09,63.97,334.00,125.11,92.71,167.92,15.00,34.43,20.75,28.93,47.10,31.15,53.27,64.43,54.00,1,주먹 쥐기 (Fist)
296.00,530.00,140.00,572.00,39.00,60.86,53.34,61.78,185.07,84.18,162.40,135.56,78.00,123.01,103.57,218.09,322.49,80.52,170.87,95.58,40.00,51.34,35.11,45.10,44.15,100.37,21.00,43.87,5.00,142.06,161.09,63.97,334.00,125.11,92.71,167.92,15.00,27.59,12.39,14.16,50.33,35.26,39.81,77.97,39.00,1,주먹 쥐기 (Fist)
312.00,672.00,88.00,572.00,57.00,44.79,82.72,90.87,153.08,87.14,134.73,153.54,46.00,158.34,8.61,118.56,414.97,30.20,254.26,84.09,60.00,63.53,61.55,50.47,44.15,25.84,88.66,43.00,91.00,118.11,180.27,102.70,290.00,81.23,98.95,211.59,29.00,37.09,13.37,16.81,70.34,51.23,49.41,56.97,60.00,1,주먹 쥐기 (Fist)
259.00,572.00,130.00,616.00,54.00,40.71,110.42,125.74,158.14,125.54,150.38,115.86,91.00,139.40,30.12,130.98,408.13,51.03,262.02,89.00,82.00,68.39,63.83,54.23,45.54,22.90,86.17,38.17,86.00,118.11,180.27,102.70,290.00,81.23,98.95,211.59,29.00,51.09,21.94,31.04,68.07,39.96,53.19,71.12,45.00,1,주먹 쥐기 (Fist)
281.00,616.00,120.00,616.00,42.00,41.87,111.00,124.75,164.92,120.43,152.50,122.60,84.00,203.68,45.54,172.19,346.36,88.18,245.11,107.80,147.00,73.33,62.65,52.98,40.85,27.85,84.89,42.20,91.00,191.14,247.85,149.90,214.00,53.69,39.16,174.35,47.00,69.04,30.32,38.27,50.09,36.09,37.19,58.43,63.00,1,주먹 쥐기 (Fist)
352.00,583.00,174.00,551.00,16.00,42.89,101.30,108.51,161.64,115.24,137.43,105.75,101.00,151.39,20.24,125.00,368.59,93.33,204.00,130.76,202.00,47.75,92.91,86.62,62.01,49.36,58.74,67.11,125.00,96.11,161.33,79.03,234.96,64.00,117.51,205.25,145.00,40.60,46.59,63.70,59.36,14.71,7.81,59.04,98.00,1,주먹 쥐기 (Fist)
312.00,561.00,125.00,530.00,31.00,42.89,101.30,108.51,161.64,115.24,137.43,105.75,101.00,117.78,75.12,148.53,320.98,137.74,258.98,129.25,147.00,53.45,79.33,80.43,72.18,48.92,43.80,76.84,140.00,80.99,183.67,181.77,135.77,142.68,54.81,128.48,26.00,38.39,57.57,72.85,50.45,24.84,9.16,52.52,87.00,1,주먹 쥐기 (Fist)
296.00,520.00,156.00,530.00,24.00,38.57,75.66,126.10,169.19,102.38,124.97,90.32,133.00,145.05,159.38,243.06,281.46,86.99,201.00,111.10,243.00,58.18,93.50,61.07,55.97,26.78,27.78,93.15,171.00,89.72,193.35,188.52,128.82,135.31,46.43,135.68,36.00,39.09,58.91,72.57,49.20,23.61,9.36,54.15,89.00,1,주먹 쥐기 (Fist)
336.00,540.00,204.00,583.00,14.00,58.72,86.51,88.67,132.00,136.08,148.38,100.20,173.00,145.05,159.38,243.06,281.46,86.99,201.00,111.10,243.00,127.81,112.60,19.14,133.22,105.76,65.28,102.11,92.00,57.92,166.67,203.61,107.42,149.98,15.58,166.11,68.00,70.09,68.40,38.15,81.71,31.89,29.62,19.58,52.00,1,주먹 쥐기 (Fist)
352.00,470.00,273.00,561.00,3.00,142.96,103.88,126.00,185.15,89.00,62.60,67.66,87.00,214.48,152.07,191.99,307.83,148.77,265.32,95.05,313.00,255.62,154.93,141.15,196.82,132.44,115.82,78.48,220.00,28.96,164.92,234.22,84.29,119.61,38.79,135.34,37.00,89.08,66.29,25.77,90.43,41.55,24.34,38.33,71.00,1,주먹 쥐기 (Fist)
432.00,684.00,130.00,616.00,39.00,212.31,117.17,193.41,237.41,50.54,126.06,108.49,158.00,192.53,167.20,214.03,328.26,151.20,286.34,91.57,336.00,264.74,155.14,144.32,190.26,123.07,106.17,76.57,210.00,28.96,164.92,234.22,84.29,119.61,38.79,135.34,37.00,100.34,58.71,34.90,80.60,30.57,17.05,26.99,59.00,1,주먹 쥐기 (Fist)
320.00,605.00,125.00,594.00,42.00,232.88,112.79,198.13,223.99,73.57,117.18,85.52,134.00,176.49,189.19,217.71,338.61,170.09,278.85,102.55,314.00,251.34,169.17,159.56,206.01,124.23,97.98,84.05,190.00,31.53,186.90,216.96,100.26,138.77,36.56,123.27,15.00,87.70,76.49,22.33,92.66,36.92,6.86,19.26,41.00,1,주먹 쥐기 (Fist)
259.00,470.00,162.00,520.00,20.00,216.21,136.17,221.91,249.18,93.61,133.52,56.60,105.00,189.74,169.01,242.89,364.97,194.43,293.78,128.96,284.00,254.94,158.18,150.09,212.71,134.91,103.29,92.85,179.00,21.43,167.25,244.89,122.15,163.63,32.28,123.61,16.00,90.50,70.28,18.50,98.35,44.78,7.93,23.21,33.00,1,주먹 쥐기 (Fist)
320.00,561.00,130.00,540.00,28.00,221.44,112.86,202.66,261.31,89.60,157.43,37.06,81.00,188.63,168.19,234.94,360.47,192.84,303.55,138.95,274.00,255.18,161.62,149.38,208.83,137.90,108.16,97.74,174.00,28.99,172.03,245.20,136.52,168.83,45.47,114.45,5.00,90.50,70.28,18.50,98.35,44.78,7.93,23.21,33.00,1,주먹 쥐기 (Fist)
320.00,520.00,204.00,627.00,33.00,225.57,126.53,197.33,241.45,67.62,176.39,35.69,57.00,181.90,238.23,227.47,286.50,112.79,377.79,220.68,189.00,234.46,174.73,211.78,175.16,119.59,165.87,161.05,110.00,29.81,153.04,265.18,152.50,190.76,67.41,100.51,27.00,86.69,78.68,16.91,89.94,35.64,7.68,35.17,21.00,1,주먹 쥐기 (Fist)
344.00,649.00,125.00,572.00,22.00,204.99,136.42,236.47,220.49,45.05,187.27,68.24,17.00,197.01,196.52,267.09,312.93,85.03,394.44,257.94,145.00,246.24,156.46,201.52,193.71,101.06,175.17,178.80,90.00,23.11,163.79,257.35,145.60,195.94,75.16,91.47,38.00,80.51,89.67,27.81,82.07,46.07,12.92,24.96,32.00,1,주먹 쥐기 (Fist)
336.00,638.00,105.00,638.00,80.00,182.15,166.46,255.47,192.61,27.77,202.04,36.27,49.00,250.44,179.50,317.99,265.96,67.10,421.38,223.37,211.00,268.28,133.16,218.12,186.27,120.46,182.98,163.29,115.00,146.41,142.32,238.58,88.81,154.61,151.56,45.20,166.00,129.88,66.11,49.19,56.14,76.29,68.80,43.78,88.00,1,주먹 쥐기 (Fist)
252.00,551.00,130.00,520.00,26.00,222.71,128.74,278.93,173.62,18.60,245.06,15.57,93.00,271.21,193.68,313.91,250.38,85.47,401.31,225.13,190.00,278.25,129.77,227.45,176.57,123.04,173.82,165.74,105.00,97.74,100.31,285.12,140.51,109.84,172.74,87.38,218.00,116.88,58.44,39.71,69.12,74.14,78.30,56.76,101.00,1,주먹 쥐기 (Fist)
328.00,594.00,135.00,594.00,42.00,206.72,132.27,263.41,188.81,24.51,258.48,30.60,109.00,196.63,115.68,390.26,204.42,152.57,333.99,218.30,112.00,234.08,116.05,230.81,171.03,169.90,130.91,166.96,58.00,113.66,122.31,269.57,140.36,91.59,169.23,103.73,240.00,103.29,44.02,48.36,69.87,88.53,78.35,43.01,86.00,1,주먹 쥐기 (Fist)
304.00,551.00,198.00,605.00,20.00,166.87,117.37,260.93,180.40,60.19,252.19,15.41,64.00,181.72,101.83,402.10,186.08,153.85,338.78,225.46,133.00,191.48,76.19,297.55,103.04,152.48,164.24,193.83,126.00,108.96,114.90,265.26,129.39,95.06,160.89,109.61,251.00,85.11,20.38,81.10,36.69,73.05,56.33,69.98,120.00,1,주먹 쥐기 (Fist)
344.00,605.00,110.00,490.00,20.00,139.05,75.80,320.63,117.61,48.39,215.19,47.68,127.00,178.18,103.94,396.39,191.93,143.26,344.43,217.83,122.00,193.26,85.15,292.35,103.82,161.58,163.74,202.14,136.00,166.26,177.29,139.27,187.45,31.00,286.79,148.40,125.00,87.70,36.64,87.83,36.69,57.40,77.65,58.48,98.00,1,주먹 쥐기 (Fist)
296.00,530.00,120.00,551.00,76.00,142.99,129.87,288.49,125.00,104.34,161.94,102.00,183.00,190.61,151.86,344.00,237.92,181.20,293.11,266.93,175.00,190.64,137.10,327.66,50.70,128.15,206.10,149.37,82.00,166.26,177.29,139.27,187.45,31.00,286.79,148.40,125.00,70.98,26.80,135.88,27.31,16.11,132.11,83.65,38.00,1,주먹 쥐기 (Fist)
231.00,616.00,120.00,594.00,39.00,155.35,202.38,343.30,56.85,106.98,238.18,54.37,102.00,157.49,104.27,360.52,267.00,174.66,246.60,321.88,230.00,189.22,139.86,332.30,49.65,125.12,201.21,154.32,87.00,102.52,144.46,105.36,237.99,89.45,295.69,84.42,189.00,69.19,34.32,142.17,31.40,8.19,128.76,76.29,46.00,1,주먹 쥐기 (Fist)
312.00,480.00,245.00,551.00,4.00,155.74,196.36,328.91,69.97,122.98,246.30,60.93,86.00,190.57,116.78,390.20,236.33,139.29,243.24,358.61,270.00,254.10,179.13,342.81,40.79,44.26,169.84,235.39,176.00,84.79,154.37,84.44,250.00,78.98,277.86,104.36,168.00,81.63,30.74,148.49,48.85,16.93,137.45,56.30,66.00,1,주먹 쥐기 (Fist)
414.00,638.00,151.00,605.00,24.00,203.27,240.02,343.25,73.24,119.75,274.42,46.13,164.00,94.59,173.16,306.52,184.11,83.27,320.00,433.96,368.00,202.89,126.43,290.46,72.95,80.00,206.70,277.10,229.00,75.65,175.84,76.63,232.77,65.64,299.42,88.32,190.00,72.56,23.56,138.49,45.89,25.13,147.11,47.05,76.00,1,주먹 쥐기 (Fist)
378.00,572.00,204.00,638.00,26.00,227.79,265.99,369.14,54.04,93.93,249.53,46.20,138.00,12.52,274.93,344.67,94.92,55.02,221.47,389.48,266.00,134.42,83.37,260.26,124.91,47.52,138.03,246.50,160.00,112.87,243.90,146.21,192.39,142.33,264.32,135.28,113.00,49.63,2.92,131.25,68.59,35.58,127.85,64.94,53.00,1,주먹 쥐기 (Fist)
328.00,572.00,125.00,520.00,24.00,124.30,201.85,334.04,149.91,99.09,164.21,137.84,34.00,101.15,216.75,234.12,86.27,94.95,197.81,411.28,154.00,130.16,85.46,264.01,122.54,42.77,141.17,246.27,165.00,38.86,226.71,111.47,109.79,195.91,317.19,200.82,17.00,64.14,17.40,119.46,68.26,49.75,126.34,74.64,38.00,1,주먹 쥐기 (Fist)
304.00,572.00,120.00,605.00,57.00,110.76,207.30,347.42,147.11,83.53,165.21,121.99,50.00,131.64,232.95,229.95,62.01,104.19,174.52,390.20,187.00,127.35,90.21,268.50,118.12,46.23,141.72,248.39,160.00,46.47,218.87,101.34,117.39,192.26,328.16,206.80,6.00,52.64,11.09,132.99,53.34,53.54,136.93,81.54,23.00,1,주먹 쥐기 (Fist)
288.00,583.00,151.00,583.00,36.00,128.92,180.96,324.08,175.92,84.69,148.83,98.23,79.00,89.55,124.64,137.18,166.40,217.13,62.22,297.27,300.00,125.75,100.12,268.06,123.71,51.27,133.19,240.32,171.00,108.06,155.87,70.43,86.12,255.10,283.76,203.57,69.00,48.77,25.72,133.49,57.38,65.82,120.95,80.42,39.00,1,주먹 쥐기 (Fist)
304.00,605.00,135.00,594.00,28.00,123.95,196.21,320.20,178.27,100.47,133.45,91.83,95.00,119.05,85.52,97.34,162.11,205.36,101.66,339.39,256.00,124.41,98.47,272.72,119.54,56.19,128.20,235.67,176.00,160.89,123.14,119.93,35.51,236.44,284.62,184.11,15.00,48.77,25.72,133.49,57.38,65.82,120.95,80.42,39.00,1,주먹 쥐기 (Fist)
328.00,572.00,125.00,583.00,51.00,123.11,192.57,328.08,170.43,104.84,126.45,92.66,103.00,169.47,90.67,116.29,110.16,163.71,92.71,287.83,308.00,183.10,94.03,225.72,99.72,106.80,97.72,156.68,255.00,125.89,117.93,97.50,39.05,272.99,259.44,162.22,29.00,61.90,35.03,120.21,53.15,65.20,123.06,94.32,57.00,1,주먹 쥐기 (Fist)
288.00,583.00,130.00,561.00,33.00,156.49,182.16,302.05,168.44,88.36,124.15,130.57,159.00,105.32,38.96,53.24,131.47,108.01,149.75,233.43,374.00,178.18,96.15,222.63,104.69,106.20,101.17,152.12,260.00,121.74,110.98,105.87,31.40,264.21,270.12,170.28,18.00,72.60,36.69,124.88,42.19,75.06,114.11,83.65,46.00,1,주먹 쥐기 (Fist)
336.00,594.00,156.00,572.00,24.00,156.49,182.16,302.05,168.44,88.36,124.15,130.57,159.00,76.89,13.80,70.92,97.67,102.97,110.17,257.45,330.00,128.68,145.41,173.92,121.59,155.71,50.17,190.56,209.00,141.21,46.55,166.70,45.19,254.93,216.68,110.07,84.00,20.02,79.95,69.26,66.84,122.11,59.13,29.04,10.00,1,주먹 쥐기 (Fist)
344.00,594.00,186.00,696.00,31.00,64.49,274.11,219.40,202.20,166.47,37.73,41.14,67.00,92.03,48.43,33.32,132.59,68.09,107.78,271.62,287.00,92.12,194.83,179.98,79.20,132.88,98.34,167.99,265.00,105.80,218.91,232.56,162.27,112.23,268.88,68.71,260.00,22.81,75.31,70.60,70.09,122.01,56.81,25.71,15.00,1,주먹 쥐기 (Fist)
361.00,561.00,168.00,540.00,14.00,36.60,297.82,226.60,175.93,169.51,53.36,68.09,100.00,91.46,25.28,37.45,151.74,39.55,135.66,274.25,254.00,94.50,209.00,212.76,56.60,107.90,90.05,167.07,232.00,106.38,189.01,183.56,157.54,59.89,322.39,117.01,314.00,30.58,89.87,93.79,52.77,96.75,71.26,32.63,43.00,1,주먹 쥐기 (Fist)
352.00,616.00,120.00,530.00,26.00,47.51,304.27,274.39,149.37,122.88,71.45,51.23,52.00,79.43,59.70,91.20,110.91,85.93,198.82,265.54,189.00,78.73,241.73,188.21,42.43,45.15,152.66,160.49,154.00,163.49,223.81,205.07,232.36,98.29,267.24,79.66,239.00,25.17,90.66,89.17,47.51,92.14,77.25,38.08,49.00,1,주먹 쥐기 (Fist)
281.00,480.00,174.00,583.00,31.00,26.42,342.49,251.81,96.94,96.96,134.39,97.02,11.00,159.72,116.50,92.37,56.36,197.70,287.70,244.74,64.00,107.06,179.46,136.47,98.67,98.25,214.36,158.33,90.00,72.78,132.53,112.60,255.07,116.55,287.33,136.51,146.00,14.27,99.81,93.24,43.01,89.27,69.41,27.08,38.00,1,주먹 쥐기 (Fist)
320.00,540.00,192.00,583.00,12.00,27.58,318.53,233.08,114.63,118.25,152.77,120.92,35.00,149.79,106.96,83.10,65.39,198.95,289.59,241.87,54.00,175.17,122.04,76.65,138.71,70.92,186.41,187.92,162.00,40.87,106.25,109.24,284.49,136.26,258.24,105.41,178.00,78.02,40.20,29.42,26.42,28.99,96.56,40.20,26.00,1,주먹 쥐기 (Fist)
387.00,616.00,140.00,649.00,54.00,178.37,226.42,117.78,123.79,106.08,202.70,55.11,121.00,149.79,106.96,83.10,65.39,198.95,289.59,241.87,54.00,195.00,124.14,86.80,126.02,52.47,176.62,171.44,142.00,27.20,114.82,161.97,268.88,87.19,310.78,160.14,123.00,64.69,45.44,36.30,36.24,18.18,111.56,55.09,41.00,1,주먹 쥐기 (Fist)
304.00,551.00,186.00,594.00,11.00,170.74,223.35,112.64,129.73,113.70,210.69,62.71,129.00,103.26,145.68,151.35,28.23,147.92,220.60,183.39,17.00,146.60,82.46,32.73,177.19,39.42,122.09,115.02,83.00,68.85,155.51,190.43,226.81,89.10,292.10,123.41,166.00,60.71,44.10,33.46,41.04,15.16,106.65,49.04,34.00,1,주먹 쥐기 (Fist)
369.00,583.00,130.00,510.00,22.00,139.45,182.91,70.47,162.80,118.20,179.69,18.38,84.00,121.02,90.69,128.71,81.74,182.06,174.73,132.15,72.00,138.52,62.20,43.74,169.50,18.74,142.24,136.02,104.00,32.41,85.66,241.36,225.34,61.83,340.65,109.87,261.00,61.07,45.69,35.46,42.43,13.19,106.74,47.91,32.00,1,주먹 쥐기 (Fist)
328.00,627.00,96.00,594.00,88.00,135.22,135.56,88.88,138.58,68.63,181.02,65.01,134.00,124.61,134.72,90.25,92.18,233.67,176.86,77.26,127.00,181.22,60.04,149.50,74.95,112.13,128.87,57.38,4.00,76.25,106.71,283.09,182.39,97.24,297.04,89.14,217.00,95.07,17.98,56.17,43.86,56.09,158.31,70.80,30.00,1,주먹 쥐기 (Fist)
224.00,561.00,145.00,605.00,42.00,205.86,134.64,191.20,54.59,152.25,255.86,61.03,30.00,117.99,132.12,101.08,82.68,234.84,186.09,66.87,138.00,163.69,41.26,145.17,62.43,118.24,146.80,62.67,24.00,28.42,23.49,287.66,219.02,171.47,234.60,75.47,132.00,112.44,35.20,71.94,57.69,48.39,141.31,54.11,12.00,1,주먹 쥐기 (Fist)
296.00,490.00,211.00,540.00,11.00,213.67,142.05,193.49,61.74,152.44,247.98,53.27,38.00,65.90,190.26,143.96,144.14,308.63,107.82,138.57,56.00,74.61,85.72,227.96,50.33,193.62,69.30,62.30,67.00,47.00,87.48,224.17,274.24,184.71,248.16,99.88,67.00,67.30,39.86,87.18,91.59,89.11,129.13,8.50,34.00,1,주먹 쥐기 (Fist)
369.00,649.00,120.00,572.00,26.00,134.67,74.98,260.60,78.49,230.34,212.39,28.99,119.00,118.46,125.70,178.26,126.06,358.22,103.15,192.88,10.00,105.53,57.10,208.60,38.05,217.67,77.30,80.11,98.00,55.28,94.90,217.80,279.58,192.73,238.28,96.96,78.00,59.61,49.85,96.99,97.20,82.72,123.04,18.49,24.00,1,주먹 쥐기 (Fist)
328.00,460.00,198.00,441.00,7.00,116.90,80.25,279.71,97.08,217.34,202.07,6.44,95.00,27.77,234.89,61.23,19.42,349.49,239.58,305.56,155.00,56.16,96.62,183.05,25.08,211.48,138.49,119.21,161.00,187.01,179.92,327.76,165.89,85.38,386.50,165.91,75.00,54.24,66.80,103.33,81.32,74.34,143.81,8.64,45.00,1,주먹 쥐기 (Fist)
273.00,460.00,204.00,561.00,6.00,146.28,37.25,297.15,136.01,254.48,152.76,52.74,40.00,135.00,288.97,160.84,109.66,449.27,156.80,252.37,43.00,86.84,135.58,105.18,80.96,284.90,86.29,106.34,82.00,204.94,186.17,346.27,147.80,69.03,374.71,155.24,53.00,80.59,89.42,78.79,58.46,119.18,111.25,38.66,0.00,1,주먹 쥐기 (Fist)
387.00,583.00,135.00,594.00,48.00,146.80,135.28,198.18,111.63,346.89,62.04,150.39,59.00,135.00,288.97,160.84,109.66,449.27,156.80,252.37,43.00,91.64,135.72,102.37,79.56,281.64,84.60,103.63,87.00,188.52,202.45,353.07,130.61,39.56,384.03,157.00,20.00,66.41,91.00,93.78,43.97,126.56,113.84,52.13,15.00,1,주먹 쥐기 (Fist)
281.00,572.00,135.00,594.00,45.00,116.88,100.33,223.73,58.19,355.58,77.68,200.59,114.00,149.48,272.26,151.34,88.07,441.71,175.23,263.21,21.00,70.83,150.67,92.12,100.02,291.86,66.56,87.47,108.00,188.62,224.07,374.87,111.14,40.51,364.43,146.67,42.00,45.42,109.01,104.25,42.76,139.67,96.52,40.01,6.00,1,주먹 쥐기 (Fist)
304.00,500.00,238.00,540.00,3.00,93.17,118.27,204.47,80.66,388.65,38.37,173.59,74.00,204.14,178.45,57.35,142.00,535.54,86.98,194.99,115.00,118.43,98.80,144.12,121.61,343.38,17.73,43.43,160.00,184.43,130.92,326.14,138.62,128.10,220.36,111.86,198.00,71.83,82.65,121.59,16.12,166.32,68.83,48.35,34.00,1,주먹 쥐기 (Fist)
387.00,605.00,120.00,561.00,36.00,114.19,92.71,230.47,65.74,410.23,20.43,168.62,48.00,189.99,209.74,85.36,120.55,555.95,85.96,158.32,159.00,87.67,134.77,133.95,87.66,359.08,49.72,20.16,208.00,185.32,120.89,307.76,153.91,133.56,215.66,115.10,219.00,56.08,93.24,101.39,19.80,170.08,59.07,67.82,56.00,1,주먹 쥐기 (Fist)
320.00,616.00,135.00,594.00,51.00,82.80,120.78,220.92,39.62,405.68,44.45,179.97,16.00,189.99,209.74,85.36,120.55,555.95,85.96,158.32,159.00,90.51,132.77,120.50,75.82,348.69,63.70,25.69,223.00,222.82,65.11,260.02,201.46,186.14,186.72,139.66,155.00,54.81,92.21,105.76,17.80,190.87,52.27,42.82,31.00,1,주먹 쥐기 (Fist)
273.00,551.00,174.00,649.00,28.00,74.91,123.77,227.45,34.21,413.36,37.05,174.10,24.00,235.81,172.55,17.35,159.81,487.84,155.89,88.35,230.00,90.51,132.77,120.50,75.82,348.69,63.70,25.69,223.00,284.15,4.52,292.91,171.75,140.93,247.51,90.80,221.00,53.25,94.15,102.77,20.25,193.31,50.08,40.05,28.00,1,주먹 쥐기 (Fist)
352.00,594.00,135.00,605.00,39.00,103.27,138.65,201.28,21.59,434.11,39.56,144.71,56.00,287.06,124.65,39.85,127.48,495.44,130.15,135.94,176.00,128.46,76.08,117.11,50.00,355.28,98.12,65.16,166.00,306.11,25.95,314.38,150.88,130.12,227.81,110.02,199.00,76.45,67.24,118.01,23.35,189.13,23.09,28.67,1.00,1,주먹 쥐기 (Fist)
320.00,638.00,80.00,510.00,51.00,74.02,74.10,194.78,88.14,409.80,105.56,77.90,123.00,308.95,103.26,55.46,108.45,513.89,121.91,121.31,198.00,186.99,45.97,74.40,10.00,406.55,39.27,5.20,226.00,190.59,120.19,320.32,167.06,11.03,228.70,248.90,60.00,73.45,69.58,119.43,21.26,186.28,21.13,29.86,2.00,1,주먹 쥐기 (Fist)
252.00,520.00,168.00,616.00,24.00,103.06,33.63,150.15,104.85,461.58,72.88,128.60,71.00,281.95,121.82,69.60,95.21,539.52,95.57,116.94,229.00,204.63,59.94,56.65,20.59,392.61,50.12,23.05,208.00,200.35,103.49,298.52,186.12,31.86,248.51,269.57,38.00,85.80,69.18,106.51,14.32,178.12,26.16,40.51,15.00,1,주먹 쥐기 (Fist)
369.00,605.00,156.00,605.00,20.00,103.06,33.63,150.15,104.85,461.58,72.88,128.60,71.00,295.58,124.59,48.95,116.42,535.85,73.89,126.79,251.00,183.50,34.87,66.87,40.25,401.24,56.78,47.80,182.00,231.53,139.78,263.32,245.73,93.83,162.85,208.45,133.00,84.26,67.69,107.06,16.28,179.14,28.14,42.50,17.00,1,주먹 쥐기 (Fist)
387.00,510.00,266.00,638.00,8.00,44.15,33.42,152.15,145.60,501.61,30.96,106.32,130.00,283.33,68.44,125.49,183.83,423.29,97.53,231.64,368.00,178.29,158.64,144.17,191.42,231.32,194.30,133.49,352.00,241.79,183.74,300.46,218.84,72.28,177.92,219.06,89.00,85.53,12.71,67.39,78.64,100.65,60.10,40.88,63.00,1,주먹 쥐기 (Fist)
423.00,649.00,130.00,605.00,31.00,161.05,210.96,116.38,160.55,327.27,226.06,200.84,69.00,253.87,138.90,153.83,147.14,372.36,185.27,319.51,456.00,167.27,146.36,145.00,194.79,225.43,207.58,148.26,367.00,241.79,183.74,300.46,218.84,72.28,177.92,219.06,89.00,94.38,22.82,57.16,77.16,102.68,50.71,29.96,52.00,1,주먹 쥐기 (Fist)
352.00,594.00,168.00,661.00,48.00,215.58,248.23,103.61,126.18,318.54,187.37,173.32,13.00,215.79,238.87,256.28,250.25,319.89,139.43,229.59,352.00,128.38,146.49,186.66,236.56,196.72,198.38,114.17,324.00,217.04,223.68,293.64,302.61,187.11,88.80,199.76,32.00,58.68,33.13,87.61,114.11,76.01,57.03,18.83,15.00,1,주먹 쥐기 (Fist)
281.00,572.00,115.00,551.00,39.00,150.69,260.83,187.41,207.85,236.72,216.79,195.55,75.00,264.36,207.38,248.00,254.37,242.89,195.63,200.62,275.00,123.41,150.54,189.58,235.54,201.55,195.29,116.28,329.00,224.72,228.32,311.81,290.39,192.35,69.41,195.49,53.00,45.70,46.05,87.57,114.28,88.65,44.67,10.23,28.00,1,주먹 쥐기 (Fist)
281.00,551.00,145.00,594.00,28.00,146.04,303.44,218.11,199.42,273.34,171.57,162.32,28.00,182.82,179.63,165.33,166.34,224.50,285.63,234.63,184.00,73.77,202.98,168.40,183.85,201.17,247.94,124.79,276.00,155.05,121.70,214.20,184.36,123.77,90.41,174.93,206.00,28.49,61.59,69.42,93.34,87.49,64.38,28.69,7.00,1,주먹 쥐기 (Fist)
378.00,627.00,151.00,572.00,26.00,137.56,209.81,275.04,304.28,269.65,91.68,85.47,77.00,33.29,121.10,105.05,270.05,96.12,225.29,136.28,351.00,56.16,239.15,115.97,203.68,150.71,209.50,95.83,329.00,150.52,111.66,221.75,174.77,133.81,81.11,176.29,195.00,28.07,67.93,53.80,93.77,68.86,57.66,9.13,27.00,1,주먹 쥐기 (Fist)
320.00,540.00,192.00,583.00,22.00,158.32,233.34,213.37,314.35,215.52,125.70,56.09,144.00,70.82,147.53,62.17,247.36,53.16,256.44,118.21,394.00,58.70,243.05,154.39,156.34,119.18,220.25,70.45,386.00,158.48,122.07,211.58,169.50,141.88,79.80,182.26,184.00,22.04,80.00,50.03,68.07,53.04,75.49,20.45,53.00,1,주먹 쥐기 (Fist)
320.00,605.00,130.00,616.00,39.00,129.53,247.27,214.35,276.81,181.43,164.70,56.32,183.00,37.93,114.53,82.92,218.68,52.64,289.33,101.19,427.00,58.09,238.94,155.90,153.22,122.75,224.72,68.13,391.00,137.97,113.78,212.54,189.36,136.40,95.93,201.04,162.00,22.49,85.93,44.87,69.38,49.35,69.52,14.47,47.00,1,주먹 쥐기 (Fist)
328.00,605.00,105.00,583.00,57.00,108.36,269.97,193.74,284.68,179.07,148.67,61.94,159.00,74.11,84.12,110.62,186.27,52.79,234.74,191.07,322.00,160.68,110.39,288.72,94.76,53.84,107.77,189.36,258.00,94.97,139.19,175.71,176.31,178.62,53.49,158.48,205.00,62.17,53.65,94.32,22.20,12.31,55.46,41.89,7.00,1,주먹 쥐기 (Fist)
281.00,583.00,192.00,672.00,16.00,213.78,181.91,287.17,189.99,88.21,192.03,157.17,53.00,52.42,65.66,120.81,164.30,62.95,244.55,213.07,300.00,88.79,153.52,266.82,25.06,125.84,126.78,260.77,186.00,42.33,250.17,102.30,70.71,152.32,146.92,267.71,94.00,42.18,47.28,94.12,13.15,32.27,72.93,61.55,27.00,1,주먹 쥐기 (Fist)
405.00,672.00,115.00,594.00,45.00,135.68,204.48,299.76,160.13,32.82,276.78,241.77,32.00,103.67,121.42,66.32,176.78,59.17,298.74,265.44,244.00,107.02,153.59,250.28,23.41,134.74,146.33,278.47,166.00,42.33,250.17,102.30,70.71,152.32,146.92,267.71,94.00,36.83,42.69,99.88,7.28,30.71,67.32,56.51,21.00,1,주먹 쥐기 (Fist)
312.00,638.00,130.00,627.00,45.00,115.84,196.17,338.58,121.49,12.33,248.84,207.78,7.00,179.83,190.29,105.26,101.41,134.84,229.43,207.75,331.00,141.81,188.98,214.25,23.41,165.10,112.38,251.98,210.00,21.34,250.87,82.72,52.50,139.57,155.09,255.03,116.00,49.26,59.68,90.29,20.25,45.99,62.57,49.33,4.00,1,주먹 쥐기 (Fist)
273.00,500.00,151.00,530.00,22.00,140.30,262.82,309.90,134.16,73.77,264.05,174.09,86.00,129.44,187.14,50.39,177.56,208.92,245.40,211.73,425.00,133.14,173.41,210.46,32.56,179.51,113.84,249.53,226.00,53.68,311.62,119.03,116.11,113.54,87.94,278.88,41.00,42.83,49.60,81.07,30.61,58.97,73.88,53.89,13.00,1,주먹 쥐기 (Fist)
304.00,551.00,120.00,561.00,42.00,144.43,278.12,322.81,120.07,71.57,249.68,172.43,70.00,163.82,264.70,135.31,160.31,235.43,169.79,172.68,338.00,133.94,156.54,171.35,66.48,185.36,84.66,241.93,186.00,21.39,262.26,75.35,109.55,67.52,38.46,286.58,10.00,45.34,52.82,72.11,36.88,61.49,64.88,47.70,4.00,1,주먹 쥐기 (Fist)
320.00,616.00,145.00,594.00,33.00,164.33,252.85,267.65,164.92,136.50,186.24,155.40,2.00,92.78,180.00,120.45,256.20,331.10,76.32,138.40,242.00,123.21,147.71,185.79,77.80,208.17,61.88,231.71,163.00,22.63,273.63,71.87,87.69,50.74,35.84,284.08,32.00,39.59,44.43,75.15,43.28,70.48,59.13,39.97,5.00,1,주먹 쥐기 (Fist)
320.00,572.00,156.00,583.00,26.00,129.75,232.11,257.32,199.48,169.35,175.30,141.74,47.00,120.75,188.77,88.00,257.03,342.98,69.04,127.65,209.00,123.21,147.71,185.79,77.80,208.17,61.88,231.71,163.00,34.26,269.95,52.13,93.05,45.88,21.62,294.67,10.00,34.69,38.92,71.07,47.38,68.22,58.54,45.87,1.00,1,주먹 쥐기 (Fist)
328.00,561.00,120.00,510.00,39.00,83.89,180.56,201.13,241.62,196.56,144.81,178.25,12.00,70.10,215.13,124.38,206.29,309.87,111.27,107.21,158.00,55.67,47.30,40.91,116.81,165.12,149.13,109.11,17.00,146.74,185.89,91.44,217.52,171.20,147.95,206.97,138.00,9.58,40.65,42.84,34.06,49.88,84.09,16.99,30.00,1,주먹 쥐기 (Fist)
252.00,490.00,174.00,510.00,16.00,104.45,36.86,151.97,187.86,48.48,309.27,65.16,159.00,227.72,61.60,222.84,246.01,160.91,266.61,132.89,1.00,63.30,29.72,63.78,145.04,128.29,190.90,72.98,27.00,231.37,99.53,170.51,223.76,151.06,99.33,289.20,43.00,22.14,26.93,43.02,49.04,34.88,98.53,15.69,45.00,1,주먹 쥐기 (Fist)
336.00,583.00,145.00,594.00,31.00,116.40,48.02,167.78,171.94,39.51,296.18,71.76,143.00,237.60,51.15,231.99,236.92,160.08,260.12,128.52,10.00,46.95,46.26,73.86,130.43,108.81,203.01,52.20,50.00,283.70,35.93,182.24,160.46,89.42,80.98,222.28,110.00,39.14,11.45,30.27,51.24,44.14,91.09,12.49,28.00,1,주먹 쥐기 (Fist)
352.00,551.00,217.00,605.00,20.00,103.46,23.92,144.77,192.77,31.57,293.58,135.31,72.00,252.14,46.33,229.09,225.52,179.94,257.38,129.74,11.00,144.18,57.57,33.35,76.11,164.68,210.04,50.80,152.00,258.03,71.74,224.67,188.04,56.64,63.23,172.25,164.00,57.04,21.02,13.17,33.54,54.85,85.23,21.73,47.00,1,주먹 쥐기 (Fist)
328.00,627.00,115.00,540.00,22.00,133.93,68.50,187.41,152.63,43.87,259.45,88.47,119.00,233.10,54.93,302.54,164.77,236.34,204.85,132.90,87.00,115.11,37.38,22.15,106.08,191.82,198.28,78.13,182.00,264.29,77.05,182.28,232.94,103.87,48.41,141.72,218.00,61.84,26.92,16.05,31.32,49.28,90.32,15.93,41.00,1,주먹 쥐기 (Fist)
328.00,530.00,180.00,616.00,28.00,88.13,57.65,156.76,186.27,91.28,209.48,50.40,169.00,224.96,104.82,258.72,242.63,234.45,109.88,159.80,184.00,138.97,39.59,8.25,111.02,193.63,172.65,101.60,211.00,275.35,38.01,171.69,214.45,137.76,45.65,145.93,262.00,60.79,25.81,14.14,29.41,49.34,92.26,13.94,39.00,1,주먹 쥐기 (Fist)
336.00,572.00,162.00,627.00,28.00,104.03,45.21,147.78,197.28,95.34,198.01,49.86,185.00,235.29,74.12,235.15,259.70,208.44,83.32,169.05,216.00,123.53,56.88,32.00,82.86,168.43,143.87,121.91,241.00,306.30,6.92,129.85,256.32,152.31,73.59,124.74,218.00,60.22,27.79,14.96,28.16,43.74,89.29,19.41,45.00,1,주먹 쥐기 (Fist)
361.00,649.00,156.00,684.00,36.00,143.80,4.21,107.49,228.04,128.80,201.65,46.22,144.00,268.25,68.06,195.18,296.71,247.73,97.80,174.99,172.00,127.42,30.99,26.28,76.32,147.02,134.10,135.17,267.00,371.00,74.63,96.77,283.05,84.75,12.92,178.05,286.00,59.27,24.99,11.97,25.18,41.67,90.22,21.71,48.00,1,주먹 쥐기 (Fist)
396.00,720.00,115.00,684.00,68.00,203.57,65.09,116.87,193.87,85.94,246.28,83.50,212.00,380.20,175.30,234.65,258.38,276.51,166.90,139.12,287.00,126.40,26.05,36.21,66.37,144.78,129.70,133.27,257.00,471.52,161.65,188.57,201.56,146.48,96.44,79.55,185.00,66.83,35.38,19.51,28.65,47.47,100.21,28.85,59.00,1,주먹 쥐기 (Fist)
273.00,561.00,125.00,520.00,26.00,198.10,59.42,108.88,201.32,91.72,254.27,91.36,220.00,358.66,157.13,213.13,280.19,298.46,188.59,133.59,309.00,167.07,60.95,59.17,89.20,80.24,71.26,162.69,190.00,343.81,167.79,148.57,326.02,188.51,224.60,72.72,33.00,76.27,41.17,20.18,20.52,37.90,90.99,25.91,49.00,1,주먹 쥐기 (Fist)
281.00,551.00,145.00,627.00,33.00,194.85,139.90,134.52,195.06,57.08,192.88,39.89,96.00,268.08,183.65,226.46,291.00,283.51,152.92,223.32,188.00,139.33,56.89,38.59,113.21,63.41,41.41,189.21,160.00,360.64,136.27,116.24,341.98,175.97,240.52,104.49,0.00,64.31,43.62,30.30,30.02,39.06,87.40,31.36,37.00,1,주먹 쥐기 (Fist)
369.00,672.00,105.00,572.00,51.00,164.61,88.45,82.16,250.46,111.65,227.10,96.72,39.00,280.45,150.68,192.46,323.64,316.10,179.91,257.05,154.00,164.31,40.21,30.08,102.18,82.75,32.94,214.17,135.00,354.81,187.32,154.85,296.40,121.29,234.69,152.63,55.00,69.67,38.29,26.13,33.42,45.01,90.66,36.67,31.00,1,주먹 쥐기 (Fist)
281.00,605.00,145.00,638.00,42.00,158.91,87.08,83.61,252.24,110.45,219.10,89.23,47.00,303.08,78.37,179.41,365.82,264.41,79.37,158.57,259.00,169.94,34.46,24.73,107.84,77.85,29.03,208.53,141.00,332.13,169.34,210.63,247.12,115.45,176.79,240.59,163.00,84.35,19.81,39.67,50.57,39.23,71.09,16.73,51.00,1,주먹 쥐기 (Fist)
312.00,583.00,145.00,583.00,24.00,151.58,92.19,91.52,244.48,103.53,225.04,95.16,39.00,304.70,96.50,210.71,338.94,241.78,94.96,181.33,227.00,152.45,57.86,47.05,102.49,87.33,5.70,190.93,166.00,323.23,187.43,231.14,226.11,93.46,196.73,226.96,141.00,77.08,29.65,26.19,60.31,56.00,56.56,4.99,69.00,1,주먹 쥐기 (Fist)
336.00,572.00,120.00,551.00,45.00,135.58,108.17,100.70,241.05,116.81,224.61,89.06,55.00,320.06,52.56,189.93,365.55,200.96,99.68,204.79,183.00,162.17,50.56,51.83,77.65,112.16,19.32,184.04,191.00,354.75,145.70,233.42,216.69,88.36,237.28,220.81,98.00,77.04,31.12,22.54,51.74,64.40,57.04,15.93,81.00,1,주먹 쥐기 (Fist)
296.00,583.00,110.00,540.00,51.00,158.28,91.79,114.16,217.50,115.45,242.31,94.14,79.00,312.15,61.30,182.31,374.04,201.58,95.37,207.93,172.00,172.03,87.97,97.80,85.00,108.42,35.53,181.62,145.00,395.88,130.30,275.31,174.11,48.32,220.84,210.20,141.00,73.18,54.61,8.19,72.47,76.34,39.88,9.68,56.00,1,주먹 쥐기 (Fist)
273.00,583.00,174.00,696.00,26.00,203.49,112.80,167.58,213.28,166.87,187.53,70.43,24.00,291.90,68.91,161.83,388.24,180.75,115.69,210.79,194.00,182.55,41.15,93.11,42.72,161.17,87.98,172.49,91.00,212.11,159.49,228.94,234.23,150.99,348.44,195.72,327.00,78.93,43.85,19.38,67.36,88.98,27.41,22.64,43.00,1,주먹 쥐기 (Fist)
405.00,684.00,110.00,605.00,51.00,164.10,45.00,203.86,61.00,289.52,149.35,133.87,129.00,98.06,187.25,253.19,274.70,342.84,101.13,193.88,0.00,147.39,75.95,32.60,36.24,202.93,136.06,158.28,27.00,144.44,187.79,321.67,176.66,125.78,255.75,216.46,232.00,55.11,59.05,26.60,35.81,101.09,15.40,56.32,8.00,1,주먹 쥐기 (Fist)
281.00,540.00,145.00,583.00,45.00,142.09,56.27,151.00,74.40,291.04,198.28,174.45,184.00,139.51,174.05,216.07,315.29,345.20,142.89,199.80,43.00,147.39,75.95,32.60,36.24,202.93,136.06,158.28,27.00,146.92,190.59,315.80,186.63,136.30,250.40,224.73,221.00,44.70,60.08,38.98,29.83,110.19,1.70,45.12,22.00,1,주먹 쥐기 (Fist)
281.00,638.00,88.00,572.00,42.00,115.33,127.24,162.56,45.35,354.56,134.90,150.03,113.00,85.07,145.05,217.59,351.93,272.60,204.15,205.92,130.00,54.77,108.59,139.62,103.59,74.40,129.91,109.41,102.00,146.37,220.11,336.30,175.60,118.51,242.82,193.58,254.00,26.49,51.10,44.73,51.48,89.98,23.68,58.11,0.00,1,주먹 쥐기 (Fist)
320.00,572.00,135.00,540.00,33.00,111.68,133.12,170.56,37.64,348.81,136.79,148.20,121.00,97.89,189.93,264.51,306.40,226.25,219.80,207.31,185.00,67.28,107.30,128.98,101.04,66.47,125.04,105.92,122.00,146.37,220.11,336.30,175.60,118.51,242.82,193.58,254.00,16.96,42.15,38.91,54.08,90.00,17.81,54.75,11.00,1,주먹 쥐기 (Fist)
273.00,561.00,120.00,551.00,36.00,79.91,147.17,198.56,56.85,332.10,170.83,184.82,66.00,98.79,160.16,241.32,288.85,235.51,210.45,202.38,216.00,25.06,75.87,102.40,41.11,119.54,83.62,94.85,182.00,116.41,254.09,347.33,201.94,181.24,179.04,136.90,319.00,9.51,34.19,30.93,46.62,97.25,15.90,53.92,3.00,1,주먹 쥐기 (Fist)
312.00,572.00,151.00,594.00,33.00,65.96,140.98,187.79,74.40,355.80,146.84,162.32,90.00,98.79,160.16,241.32,288.85,235.51,210.45,202.38,216.00,22.10,66.71,91.60,41.77,112.39,94.29,98.38,171.00,100.38,252.21,321.82,230.41,178.32,198.52,156.95,286.00,4.57,31.33,29.68,44.92,93.68,19.76,56.16,8.00,1,주먹 쥐기 (Fist)
320.00,572.00,168.00,572.00,20.00,43.51,109.79,146.80,60.07,336.43,177.76,203.31,49.00,55.85,155.24,164.34,256.52,215.97,285.87,265.91,139.00,29.23,78.59,98.86,30.08,118.67,104.68,107.09,159.00,84.31,191.14,226.91,203.02,85.95,236.08,158.87,398.00,20.53,31.62,18.29,29.97,101.03,35.61,69.38,24.00,1,주먹 쥐기 (Fist)
304.00,510.00,168.00,572.00,18.00,75.87,18.12,142.11,32.14,282.77,187.68,124.02,141.00,191.00,176.97,207.43,83.67,101.37,238.46,62.71,349.00,80.98,118.59,88.03,67.54,67.60,102.94,59.35,212.00,149.24,101.62,280.04,91.05,196.16,128.59,113.92,286.00,69.20,44.20,31.94,45.80,52.22,38.92,20.99,26.00,1,주먹 쥐기 (Fist)
352.00,540.00,156.00,520.00,20.00,66.11,94.73,64.32,82.46,204.35,261.63,112.09,220.00,208.04,177.72,227.15,103.12,119.54,221.35,83.55,328.00,111.20,129.28,62.14,85.56,75.26,78.41,89.85,181.00,149.24,101.62,280.04,91.05,196.16,128.59,113.92,286.00,74.48,45.26,35.05,49.58,53.08,32.92,26.98,20.00,1,주먹 쥐기 (Fist)
344.00,649.00,115.00,605.00,57.00,121.40,143.04,56.33,121.66,228.23,207.92,93.32,157.00,174.36,251.74,242.19,115.66,204.54,125.06,179.70,230.00,87.74,141.56,89.92,109.00,59.83,48.41,119.17,151.00,154.94,85.05,283.19,113.04,179.40,121.96,99.79,264.00,61.77,61.19,51.93,69.35,35.78,23.23,50.27,4.00,1,주먹 쥐기 (Fist)
281.00,616.00,125.00,672.00,64.00,33.62,148.65,31.83,189.53,187.82,212.40,101.56,69.00,166.81,197.31,186.23,75.17,212.46,107.86,229.88,174.00,97.37,122.37,90.66,99.40,39.88,37.53,136.36,131.00,189.48,130.34,371.12,148.92,98.17,194.73,55.42,164.00,63.02,74.14,63.27,76.40,48.59,16.42,39.94,9.00,1,주먹 쥐기 (Fist)
304.00,605.00,145.00,605.00,31.00,54.74,127.98,29.62,179.11,164.99,232.59,107.59,46.00,166.81,197.31,186.23,75.17,212.46,107.86,229.88,174.00,97.37,122.37,90.66,99.40,39.88,37.53,136.36,131.00,162.51,132.05,347.71,125.73,117.25,227.00,61.37,131.00,57.60,67.54,64.93,85.44,52.36,9.05,36.72,20.00,1,주먹 쥐기 (Fist)
320.00,616.00,101.00,540.00,28.00,61.05,120.34,37.58,186.46,169.13,224.98,108.07,54.00,190.95,191.21,165.75,63.51,241.78,74.98,219.69,207.00,114.19,142.02,73.51,91.09,35.55,16.09,130.85,175.00,121.73,169.13,367.44,161.25,78.12,206.18,72.67,174.00,60.61,66.84,60.98,83.35,49.79,5.70,37.85,24.00,1,주먹 쥐기 (Fist)
320.00,530.00,156.00,594.00,48.00,54.31,128.42,33.50,180.89,160.45,218.29,116.44,70.00,151.29,225.33,207.07,22.47,243.26,49.94,229.73,249.00,86.87,152.57,46.16,55.15,32.18,36.45,149.57,211.00,164.73,129.08,324.90,144.81,94.21,225.29,110.69,217.00,63.47,64.45,59.44,85.96,52.68,8.70,35.92,21.00,1,주먹 쥐기 (Fist)
304.00,684.00,92.00,605.00,54.00,54.20,130.26,26.42,173.30,152.53,221.43,123.26,78.00,252.28,128.66,208.47,111.00,163.07,130.85,306.12,350.00,103.43,135.97,63.77,56.75,24.79,45.69,165.39,229.00,225.91,122.61,315.95,208.31,33.66,162.83,45.70,152.00,66.46,61.48,61.33,87.46,52.37,6.98,38.57,24.00,1,주먹 쥐기 (Fist)
320.00,616.00,162.00,684.00,51.00,59.00,172.57,29.97,164.25,170.20,178.32,77.00,31.00,282.95,119.94,241.21,109.66,194.36,101.88,273.89,317.00,115.42,124.83,67.38,45.22,36.46,48.01,153.43,217.00,216.75,113.07,305.08,206.52,38.37,152.14,35.02,140.00,89.31,50.20,85.50,67.27,32.13,23.61,13.78,1.00,1,주먹 쥐기 (Fist)
320.00,638.00,140.00,627.00,31.00,97.16,99.83,63.38,79.51,135.77,101.50,15.73,54.00,251.21,99.17,222.48,155.46,204.03,102.54,228.63,271.00,88.79,138.96,91.11,61.52,58.61,76.01,125.18,187.00,227.34,134.98,321.78,184.70,60.19,147.22,28.32,118.00,75.90,43.65,84.36,82.01,14.99,37.59,6.84,21.00,1,주먹 쥐기 (Fist)
336.00,594.00,130.00,561.00,31.00,46.04,116.37,51.75,101.67,83.56,106.00,68.81,109.00,272.31,148.56,185.31,160.59,167.11,151.34,186.18,217.00,98.34,142.65,79.47,72.80,58.24,89.48,114.94,172.00,225.05,121.97,328.82,188.94,69.76,161.19,42.63,96.00,73.72,33.72,97.70,74.30,15.66,37.38,7.17,7.00,1,주먹 쥐기 (Fist)
328.00,605.00,125.00,540.00,33.00,7.76,114.52,98.65,71.55,121.86,66.52,26.66,62.00,270.95,119.72,217.33,129.03,135.36,181.89,175.11,184.00,92.14,111.27,75.39,58.42,31.19,108.43,109.41,135.00,237.56,132.78,360.81,158.15,91.32,129.23,14.11,128.00,77.10,24.83,103.58,66.57,22.35,30.46,3.38,16.00,1,주먹 쥐기 (Fist)
288.00,572.00,130.00,583.00,42.00,34.30,135.62,89.78,101.19,122.77,34.58,32.30,30.00,270.95,119.72,217.33,129.03,135.36,181.89,175.11,184.00,90.22,116.22,79.76,53.46,26.21,108.08,111.49,130.00,206.97,93.04,345.33,175.79,130.90,101.39,31.00,171.00,70.70,32.64,107.66,62.17,30.24,21.46,12.14,25.00,1,주먹 쥐기 (Fist)
312.00,616.00,130.00,638.00,61.00,7.75,96.64,58.77,119.40,91.86,31.10,69.42,9.00,234.43,101.22,265.54,79.08,90.14,207.36,154.71,239.00,97.39,110.48,72.29,55.66,25.16,100.91,119.13,120.00,134.52,28.68,415.51,110.44,152.67,117.33,63.77,84.00,49.11,47.27,132.53,41.11,39.86,42.91,13.71,0.00,1,주먹 쥐기 (Fist)
288.00,684.00,92.00,649.00,61.00,17.33,114.31,81.76,101.12,70.40,54.76,93.12,33.00,149.57,72.82,356.99,167.94,197.83,99.31,237.47,127.00,46.23,113.84,74.49,113.28,83.37,41.94,176.59,61.00,85.10,77.18,461.65,72.95,98.64,139.72,11.15,139.00,23.09,56.75,143.28,63.13,15.88,40.49,14.58,28.00,1,주먹 쥐기 (Fist)
320.00,572.00,168.00,561.00,20.00,17.33,114.31,81.76,101.12,70.40,54.76,93.12,33.00,149.57,72.82,356.99,167.94,197.83,99.31,237.47,127.00,46.23,113.84,74.49,113.28,83.37,41.94,176.59,61.00,95.93,67.76,463.42,63.51,97.52,150.56,11.75,150.00,23.09,56.75,143.28,63.13,15.88,40.49,14.58,28.00,1,주먹 쥐기 (Fist)
320.00,490.00,186.00,510.00,8.00,15.71,124.87,95.84,90.43,55.04,55.08,84.42,17.00,169.39,91.00,376.31,186.45,214.63,108.47,218.01,147.00,64.23,131.04,91.66,131.11,95.91,46.41,162.03,79.00,156.97,82.19,524.10,59.48,49.07,106.44,52.96,88.00,32.91,65.29,152.87,72.01,6.05,30.93,8.92,18.00,1,주먹 쥐기 (Fist)
361.00,572.00,168.00,605.00,26.00,23.06,133.87,102.75,97.65,61.32,48.04,85.82,26.00,138.76,62.83,357.96,177.49,241.22,105.99,193.21,179.00,75.45,141.65,93.86,133.20,85.25,51.67,168.29,67.00,94.04,13.25,482.28,41.87,37.62,147.71,133.52,3.00,27.97,59.55,152.31,69.64,8.14,28.88,11.72,12.00,1,주먹 쥐기 (Fist)
328.00,551.00,156.00,572.00,24.00,7.31,122.89,108.18,89.44,57.78,32.08,84.38,42.00,222.10,125.57,312.92,83.67,245.51,85.17,175.16,277.00,109.55,159.32,65.70,93.61,90.22,14.82,165.64,108.00,104.89,40.98,460.70,32.56,62.79,180.71,161.95,30.00,52.75,80.26,123.73,40.61,40.76,53.75,43.86,21.00,1,주먹 쥐기 (Fist)
320.00,605.00,115.00,627.00,48.00,46.29,126.08,69.20,57.28,23.64,30.64,78.40,81.00,229.77,128.95,301.93,79.70,254.43,90.42,170.37,266.00,103.37,161.80,75.60,97.17,83.14,4.98,170.24,118.00,118.01,83.35,417.82,77.23,81.42,152.18,137.35,15.00,64.22,82.86,110.80,33.24,38.74,38.78,28.80,5.00,1,주먹 쥐기 (Fist)
328.00,627.00,130.00,616.00,54.00,69.00,115.41,64.88,44.01,46.87,7.69,88.57,57.00,222.21,139.60,312.02,59.09,273.26,111.94,155.11,244.00,100.91,175.08,80.73,83.65,97.36,19.55,158.80,103.00,117.51,78.17,418.72,78.85,91.97,154.83,137.20,26.00,56.94,96.48,106.78,12.73,61.02,37.52,21.37,18.00,1,주먹 쥐기 (Fist)
312.00,616.00,151.00,605.00,33.00,62.87,122.77,57.57,36.67,49.20,1.44,95.23,49.00,222.21,139.60,312.02,59.09,273.26,111.94,155.11,244.00,98.44,128.62,120.26,115.75,113.56,63.97,112.90,53.00,154.59,117.85,362.57,143.01,105.90,102.99,125.66,39.00,58.41,101.47,102.05,9.85,58.38,33.31,19.22,13.00,1,주먹 쥐기 (Fist)
312.00,561.00,140.00,530.00,16.00,59.91,130.19,51.89,33.96,55.24,6.76,87.36,57.00,238.13,166.46,282.33,88.32,243.46,121.61,124.20,213.00,102.63,134.81,108.06,126.57,104.93,73.52,96.99,37.00,98.27,54.76,416.75,163.48,169.52,39.08,121.78,103.00,43.98,80.66,125.68,23.35,81.96,5.94,24.10,19.00,1,주먹 쥐기 (Fist)
328.00,583.00,105.00,572.00,68.00,62.86,122.53,46.95,12.04,77.06,28.76,64.04,81.00,163.46,166.19,307.85,114.69,195.50,129.22,41.37,112.00,94.42,139.60,104.22,117.80,92.03,73.95,84.57,24.00,66.68,47.33,413.89,192.84,162.65,67.79,132.05,70.00,52.72,78.80,129.94,29.21,93.99,18.23,33.49,33.00,1,주먹 쥐기 (Fist)
