a0,a1,a2,a3,a4,a0_f1,a0_f2,a0_f3,a0_f4,a0_f5,a0_f6,a0_f7,a0_f8,a1_f1,a1_f2,a1_f3,a1_f4,a1_f5,a1_f6,a1_f7,a1_f8,a2_f1,a2_f2,a2_f3,a2_f4,a2_f5,a2_f6,a2_f7,a2_f8,a3_f1,a3_f2,a3_f3,a3_f4,a3_f5,a3_f6,a3_f7,a3_f8,a4_f1,a4_f2,a4_f3,a4_f4,a4_f5,a4_f6,a4_f7,a4_f8,a0_rms,a0_mav,a0_wl,a0_zc,a1_rms,a1_mav,a1_wl,a1_zc,a2_rms,a2_mav,a2_wl,a2_zc,a3_rms,a3_mav,a3_wl,a3_zc,a4_rms,a4_mav,a4_wl,a4_zc,label,action_name
336.00,605.00,151.00,594.00,28.00,0.00,0.00,0.00,0.00,0.00,0.00,0.00,0.00,0.00,0.00,0.00,0.00,0.00,0.00,0.00,0.00,0.00,0.00,0.00,0.00,0.00,0.00,0.00,0.00,0.00,0.00,0.00,0.00,0.00,0.00,0.00,0.00,0.00,0.00,0.00,0.00,0.00,0.00,0.00,0.00,336.00,336.00,0.00,0.00,605.00,605.00,0.00,0.00,151.00,151.00,0.00,0.00,594.00,594.00,0.00,0.00,28.00,28.00,0.00,0.00,0,휴식 (Relax)
328.00,605.00,145.00,605.00,45.00,8.00,8.00,8.00,8.00,8.00,8.00,8.00,8.00,0.00,0.00,0.00,0.00,0.00,0.00,0.00,0.00,6.00,6.00,6.00,6.00,6.00,6.00,6.00,6.00,11.00,11.00,11.00,11.00,11.00,11.00,11.00,11.00,17.00,17.00,17.00,17.00,17.00,17.00,17.00,17.00,335.51,335.50,8.00,1.00,605.00,605.00,0.00,0.00,150.63,150.62,6.00,1.00,594.69,594.69,11.00,1.00,29.35,29.06,17.00,1.00,0,휴식 (Relax)
304.00,583.00,135.00,583.00,28.00,39.51,38.08,35.83,32.98,29.87,26.94,24.80,24.00,22.00,22.00,22.00,22.00,22.00,22.00,22.00,22.00,21.67,20.68,19.12,17.09,14.78,12.50,10.71,10.00,4.29,8.42,12.22,15.56,18.29,20.33,21.58,22.00,17.00,17.00,17.00,17.00,17.00,17.00,17.00,17.00,333.59,333.50,32.00,1.00,603.65,603.62,22.00,1.00,149.68,149.62,16.00,1.00,594.01,594.00,33.00,1.00,29.35,29.06,34.00,2.00,0,휴식 (Relax)
344.00,594.00,145.00,583.00,33.00,32.58,33.94,35.25,35.78,35.25,33.94,32.58,32.00,32.44,30.78,28.11,24.60,20.49,16.21,12.56,11.00,27.09,24.49,20.59,16.00,11.41,7.51,4.91,4.00,13.85,19.05,23.11,24.60,23.11,19.05,13.85,11.00,20.84,17.72,13.92,12.00,13.92,17.72,20.84,22.00,334.10,334.00,72.00,2.00,602.97,602.94,33.00,1.00,149.31,149.25,26.00,1.00,593.33,593.31,33.00,1.00,29.68,29.38,39.00,3.00,0,휴식 (Relax)
320.00,572.00,168.00,616.00,31.00,43.62,32.34,20.98,22.63,33.30,42.07,46.69,48.00,61.96,50.49,33.62,15.56,14.29,28.96,40.04,44.00,19.27,29.81,34.76,33.00,26.33,18.59,13.96,13.00,8.47,12.75,26.98,39.66,44.64,39.13,24.40,11.00,22.58,16.50,10.96,12.37,16.90,19.34,19.40,19.00,333.12,333.00,96.00,3.00,600.95,600.88,55.00,1.00,150.44,150.31,49.00,2.00,594.73,594.69,66.00,3.00,29.86,29.56,41.00,3.00,0,휴식 (Relax)
328.00,594.00,135.00,583.00,31.00,48.05,28.30,14.81,28.84,40.48,43.44,41.49,40.00,70.62,53.31,30.18,11.00,17.98,28.08,32.23,33.00,21.37,14.35,25.44,36.67,38.66,34.00,29.89,29.00,3.05,3.49,16.40,34.79,48.49,49.07,35.25,22.00,23.60,13.85,10.71,15.30,16.32,16.38,19.75,22.00,332.62,332.50,104.00,3.00,600.26,600.19,77.00,1.00,149.49,149.31,82.00,3.00,594.05,594.00,99.00,3.00,30.05,29.75,41.00,3.00,0,휴식 (Relax)
336.00,594.00,156.00,594.00,31.00,48.05,28.30,14.81,28.84,40.48,43.44,41.49,40.00,77.05,49.79,19.69,0.00,7.88,20.62,36.84,44.00,21.31,19.04,22.15,32.25,38.22,37.01,34.45,34.00,3.05,3.49,16.40,34.79,48.49,49.07,35.25,22.00,23.82,10.96,13.58,15.00,13.76,18.92,20.56,19.00,332.62,332.50,112.00,4.00,599.58,599.50,77.00,1.00,149.81,149.62,103.00,4.00,594.05,594.00,110.00,3.00,30.23,29.94,41.00,3.00,0,휴식 (Relax)
304.00,561.00,145.00,594.00,33.00,54.23,12.83,46.79,17.89,41.43,74.80,56.01,8.00,99.11,26.62,33.39,44.00,42.87,64.27,52.09,0.00,19.18,17.11,28.01,29.73,32.70,36.98,38.91,40.00,3.05,3.49,16.40,34.79,48.49,49.07,35.25,22.00,23.08,9.76,17.09,10.00,18.15,18.24,17.59,24.00,330.69,330.50,144.00,5.00,596.90,596.75,110.00,1.00,149.44,149.25,114.00,5.00,594.05,594.00,110.00,3.00,30.54,30.25,43.00,3.00,0,휴식 (Relax)
336.00,605.00,140.00,572.00,26.00,54.23,12.83,46.79,17.89,41.43,74.80,56.01,8.00,99.11,26.62,33.39,44.00,42.87,64.27,52.09,0.00,15.70,25.14,32.08,19.72,41.47,44.92,34.99,29.00,24.46,20.92,35.78,15.56,54.70,69.90,30.61,0.00,23.99,8.46,17.77,10.20,18.19,19.71,16.05,26.00,330.69,330.50,176.00,6.00,596.90,596.75,154.00,2.00,148.76,148.56,119.00,5.00,592.70,592.62,132.00,5.00,30.43,30.12,50.00,4.00,0,휴식 (Relax)
328.00,594.00,151.00,627.00,42.00,52.52,20.24,41.39,16.00,34.05,74.02,64.00,0.00,99.12,15.67,31.38,33.00,34.40,65.97,63.08,11.00,15.70,25.14,32.08,19.72,41.47,44.92,34.99,29.00,15.75,20.29,46.84,45.35,42.17,99.97,55.13,33.00,15.62,22.39,3.77,24.08,8.51,33.69,5.42,40.00,330.19,330.00,184.00,7.00,596.20,596.06,165.00,3.00,148.76,148.56,130.00,6.00,594.82,594.69,187.00,5.00,31.42,31.00,66.00,5.00,0,휴식 (Relax)
304.00,583.00,145.00,572.00,26.00,45.51,45.10,13.80,48.00,45.63,99.99,35.88,32.00,94.18,13.67,13.64,39.66,55.38,79.67,43.74,11.00,12.21,28.90,26.29,25.08,35.65,48.90,38.54,23.00,9.51,3.27,26.76,55.00,22.76,111.05,77.04,55.00,16.99,20.93,4.87,24.00,6.53,35.07,4.58,42.00,328.24,328.00,208.00,4.00,594.83,594.69,176.00,3.00,148.39,148.19,136.00,7.00,593.47,593.31,242.00,7.00,31.31,30.88,82.00,6.00,0,휴식 (Relax)
336.00,594.00,140.00,594.00,36.00,45.51,45.10,13.80,48.00,45.63,99.99,35.88,32.00,89.36,24.67,3.28,49.19,54.78,68.67,50.55,0.00,8.53,30.67,27.50,23.02,43.22,50.27,29.24,34.00,9.51,3.27,26.76,55.00,22.76,111.05,77.04,55.00,10.01,22.41,10.90,16.00,7.16,35.97,6.45,50.00,328.24,328.00,240.00,5.00,594.14,594.00,187.00,2.00,147.72,147.50,141.00,7.00,593.47,593.31,264.00,8.00,31.82,31.38,92.00,7.00,0,휴식 (Relax)
320.00,572.00,168.00,616.00,31.00,37.73,41.42,29.67,32.00,29.67,108.87,37.73,48.00,69.85,53.37,34.20,45.35,26.28,94.92,49.57,33.00,20.14,40.95,10.64,40.01,41.14,65.37,13.58,51.00,23.00,19.42,7.12,70.43,30.00,129.63,62.00,33.00,7.19,21.36,13.24,16.28,4.38,37.65,5.46,47.00,327.24,327.00,256.00,9.00,592.09,591.94,209.00,9.00,148.86,148.56,169.00,8.00,594.87,594.69,286.00,7.00,32.00,31.56,97.00,8.00,0,휴식 (Relax)
312.00,605.00,130.00,572.00,31.00,28.30,28.66,43.44,40.00,43.44,114.59,28.30,24.00,69.85,53.37,34.20,45.35,26.28,94.92,49.57,33.00,1.18,19.99,28.41,44.72,24.42,85.28,8.19,72.00,1.22,14.18,28.98,59.24,28.20,150.96,60.72,11.00,4.19,18.77,12.96,19.24,5.05,34.69,5.38,50.00,325.75,325.50,264.00,9.00,592.09,591.94,242.00,10.00,147.61,147.25,207.00,9.00,593.52,593.31,330.00,9.00,32.17,31.75,97.00,8.00,0,휴식 (Relax)
328.00,594.00,151.00,594.00,31.00,26.03,22.25,41.65,46.65,46.55,107.41,32.44,32.00,59.56,50.85,28.44,44.00,28.44,89.79,59.56,44.00,1.18,19.99,28.41,44.72,24.42,85.28,8.19,72.00,1.22,14.18,28.98,59.24,28.20,150.96,60.72,11.00,1.75,15.85,10.29,19.00,7.27,37.18,6.51,47.00,325.24,325.00,280.00,10.00,591.40,591.25,253.00,10.00,147.61,147.25,228.00,10.00,593.52,593.31,352.00,10.00,32.34,31.94,97.00,8.00,0,휴식 (Relax)
320.00,572.00,156.00,616.00,33.00,22.54,6.30,26.51,40.79,30.65,122.74,20.25,16.00,26.56,31.94,4.56,77.00,4.56,121.28,26.56,11.00,5.08,20.18,32.94,47.17,25.37,86.80,7.56,67.00,23.20,11.93,47.69,55.00,48.81,157.43,45.44,33.00,5.04,14.01,6.98,14.00,4.17,36.44,3.53,52.00,324.23,324.00,288.00,11.00,589.34,589.19,275.00,11.00,147.94,147.56,233.00,10.00,594.92,594.69,374.00,9.00,32.63,32.25,99.00,8.00,0,휴식 (Relax)
336.00,594.00,145.00,572.00,28.00,22.54,6.30,26.51,40.79,30.65,122.74,20.25,16.00,16.93,23.34,13.42,77.78,10.17,111.91,36.96,22.00,1.27,24.17,28.97,42.20,21.06,92.25,11.99,61.00,9.08,10.39,35.19,33.00,55.99,177.75,29.47,55.00,5.04,14.01,6.98,14.00,4.17,36.44,3.53,52.00,324.23,324.00,296.00,12.00,588.64,588.50,297.00,12.00,147.56,147.19,238.00,10.00,593.57,593.31,407.00,11.00,32.63,32.25,87.00,8.00,0,휴식 (Relax)
328.00,594.00,145.00,594.00,33.00,22.54,6.30,26.51,40.79,30.65,122.74,20.25,16.00,14.76,12.35,17.97,66.91,7.80,114.71,29.16,11.00,1.27,24.17,28.97,42.20,21.06,92.25,11.99,61.00,17.11,20.43,43.84,34.79,63.28,167.75,39.06,44.00,7.72,3.44,5.75,2.00,8.67,24.50,14.97,40.00,324.23,324.00,280.00,11.00,587.94,587.81,275.00,11.00,147.56,147.19,228.00,10.00,592.88,592.62,407.00,11.00,31.72,31.50,75.00,8.00,0,휴식 (Relax)
312.00,583.00,151.00,594.00,26.00,29.77,4.72,18.51,32.98,37.78,115.83,12.64,8.00,14.76,12.35,17.97,66.91,7.80,114.71,29.16,11.00,14.74,17.77,13.29,30.81,27.41,86.96,5.16,77.00,6.27,18.05,35.26,24.60,73.54,164.38,50.05,33.00,9.71,1.61,7.29,2.83,7.65,26.10,13.04,42.00,324.71,324.50,256.00,11.00,587.94,587.81,275.00,11.00,148.53,148.19,224.00,11.00,593.56,593.31,407.00,11.00,31.62,31.38,77.00,8.00,0,휴식 (Relax)
336.00,605.00,140.00,594.00,36.00,21.77,9.77,23.00,32.00,38.41,108.08,9.06,0.00,8.67,16.90,28.96,56.09,11.38,125.25,29.88,22.00,10.27,14.76,14.63,26.91,25.50,89.61,10.12,82.00,4.82,27.34,40.62,31.11,73.78,159.34,39.94,44.00,7.19,4.59,8.44,2.24,9.94,26.77,10.87,45.00,324.19,324.00,256.00,11.00,588.64,588.50,275.00,11.00,148.23,147.88,212.00,11.00,594.24,594.00,374.00,5.00,31.82,31.56,85.00,9.00,0,휴식 (Relax)
320.00,583.00,156.00,616.00,36.00,21.77,9.77,23.00,32.00,38.41,108.08,9.06,0.00,10.18,19.86,34.40,55.00,5.18,115.76,33.26,11.00,10.40,4.52,11.04,20.88,37.46,77.89,3.80,70.00,4.82,27.34,40.62,31.11,73.78,159.34,39.94,44.00,6.50,8.75,13.39,7.07,6.37,29.52,13.33,40.00,324.19,324.00,264.00,11.00,589.32,589.19,275.00,11.00,147.41,147.12,195.00,11.00,594.24,594.00,363.00,4.00,32.15,31.88,85.00,9.00,0,휴식 (Relax)
328.00,605.00,130.00,572.00,33.00,21.77,9.77,23.00,32.00,38.41,108.08,9.06,0.00,17.29,20.38,30.51,66.00,6.07,118.76,25.87,22.00,14.89,1.36,7.42,25.71,35.56,82.20,2.53,75.00,7.70,24.68,40.42,39.66,67.33,169.33,44.74,33.00,7.86,9.68,14.09,7.07,5.44,27.54,12.90,42.00,324.19,324.00,264.00,12.00,590.01,589.88,297.00,12.00,147.13,146.81,200.00,11.00,593.57,593.31,396.00,9.00,32.27,32.00,88.00,9.00,0,휴식 (Relax)
320.00,594.00,151.00,594.00,28.00,21.77,16.23,23.00,48.00,38.41,94.62,9.06,16.00,17.29,20.38,30.51,66.00,6.07,118.76,25.87,22.00,19.89,4.79,2.72,27.31,31.97,81.03,4.79,70.00,7.70,24.68,40.42,39.66,67.33,169.33,44.74,33.00,5.12,10.71,16.29,10.05,2.45,25.20,13.94,45.00,323.17,323.00,240.00,12.00,590.01,589.88,275.00,11.00,146.80,146.50,210.00,11.00,593.57,593.31,418.00,10.00,32.10,31.81,91.00,10.00,0,휴식 (Relax)
312.00,561.00,151.00,594.00,31.00,17.20,16.84,15.01,48.66,32.14,86.74,15.44,24.00,17.29,20.38,30.51,66.00,6.07,118.76,25.87,22.00,14.57,5.56,6.09,32.89,26.43,84.46,10.77,64.00,7.70,24.68,40.42,39.66,67.33,169.33,44.74,33.00,3.15,12.64,18.07,10.44,3.87,25.42,12.50,43.00,323.65,323.50,216.00,11.00,590.01,589.88,264.00,11.00,147.18,146.88,205.00,11.00,593.57,593.31,396.00,9.00,31.98,31.69,87.00,9.00,0,휴식 (Relax)
336.00,594.00,145.00,583.00,26.00,17.20,16.84,15.01,48.66,32.14,86.74,15.44,24.00,22.23,30.61,26.06,66.91,6.84,109.04,15.23,33.00,12.42,10.55,7.64,34.89,26.69,79.51,6.27,69.00,7.85,18.28,46.79,46.67,70.03,159.12,39.45,22.00,3.15,12.64,18.07,10.44,3.87,25.42,12.50,43.00,323.65,323.50,232.00,12.00,589.32,589.19,286.00,12.00,147.48,147.19,200.00,11.00,594.24,594.00,352.00,4.00,31.98,31.69,76.00,8.00,0,휴식 (Relax)
336.00,594.00,140.00,605.00,42.00,10.10,24.57,21.19,48.00,33.44,88.57,19.47,32.00,22.23,30.61,26.06,66.91,6.84,109.04,15.23,33.00,15.55,7.91,16.25,44.94,18.14,70.92,9.23,80.00,15.01,22.59,26.88,64.14,55.38,139.05,28.74,0.00,3.15,12.64,18.07,10.44,3.87,25.42,12.50,43.00,324.16,324.00,208.00,11.00,589.32,589.19,275.00,11.00,146.80,146.50,199.00,10.00,592.81,592.62,319.00,9.00,31.98,31.69,76.00,8.00,0,휴식 (Relax)
304.00,583.00,145.00,583.00,26.00,10.10,24.57,21.19,48.00,33.44,88.57,19.47,32.00,22.23,30.61,26.06,66.91,6.84,109.04,15.23,33.00,15.55,7.91,16.25,44.94,18.14,70.92,9.23,80.00,8.47,25.71,26.98,59.24,44.64,135.86,24.40,11.00,3.15,12.64,18.07,10.44,3.87,25.42,12.50,43.00,324.16,324.00,208.00,11.00,589.32,589.19,275.00,11.00,146.80,146.50,199.00,10.00,593.48,593.31,319.00,9.00,31.98,31.69,82.00,8.00,0,휴식 (Relax)
336.00,594.00,140.00,583.00,33.00,10.10,24.57,21.19,48.00,33.44,88.57,19.47,32.00,22.23,30.61,26.06,66.91,6.84,109.04,15.23,33.00,15.55,7.91,16.25,44.94,18.14,70.92,9.23,80.00,12.35,15.46,36.56,49.19,44.37,141.74,20.36,22.00,3.83,9.76,19.56,11.66,6.06,25.15,10.50,40.00,324.16,324.00,224.00,11.00,589.32,589.19,264.00,11.00,146.80,146.50,176.00,9.00,592.80,592.62,297.00,9.00,31.77,31.50,84.00,8.00,0,휴식 (Relax)
328.00,583.00,156.00,616.00,36.00,5.23,18.35,13.36,56.00,38.94,84.94,24.12,24.00,15.56,41.24,15.56,66.00,15.56,99.57,15.56,22.00,14.13,16.53,4.26,42.19,9.12,58.95,6.55,68.00,12.35,15.46,36.56,49.19,44.37,141.74,20.36,22.00,2.60,14.42,14.68,16.16,10.55,28.81,10.51,35.00,324.66,324.50,224.00,11.00,589.99,589.88,242.00,11.00,145.97,145.75,154.00,9.00,592.80,592.62,286.00,9.00,32.10,31.81,87.00,8.00,0,휴식 (Relax)
320.00,594.00,130.00,572.00,33.00,10.65,10.35,10.60,56.57,31.90,82.49,17.10,32.00,19.05,36.58,19.05,55.00,19.05,97.73,19.05,11.00,14.13,16.53,4.26,42.19,9.12,58.95,6.55,68.00,12.35,15.46,36.56,49.19,44.37,141.74,20.36,22.00,3.76,15.45,14.54,17.00,10.62,26.82,9.47,37.00,325.15,325.00,216.00,11.00,589.29,589.19,242.00,12.00,145.97,145.75,159.00,9.00,592.80,592.62,308.00,9.00,32.22,31.94,90.00,8.00,0,휴식 (Relax)
320.00,594.00,140.00,583.00,33.00,2.81,17.11,4.53,64.50,34.10,75.65,9.44,40.00,19.05,36.58,19.05,55.00,19.05,97.73,19.05,11.00,13.31,15.20,14.10,44.60,12.02,59.12,17.54,57.00,13.52,21.45,25.57,55.00,50.51,140.09,31.12,11.00,4.98,15.20,16.41,15.26,8.71,28.12,11.06,35.00,324.65,324.50,208.00,10.00,589.29,589.19,220.00,11.00,145.28,145.06,164.00,9.00,592.12,591.94,297.00,9.00,32.35,32.06,88.00,8.00,0,휴식 (Relax)
320.00,572.00,162.00,627.00,33.00,2.81,17.11,4.53,64.50,34.10,75.65,9.44,40.00,19.05,36.58,19.05,55.00,19.05,97.73,19.05,11.00,14.87,19.02,11.63,50.29,17.75,63.91,23.25,51.00,16.19,10.46,31.95,64.14,61.12,147.21,41.92,0.00,4.98,15.20,16.41,15.26,8.71,28.12,11.06,35.00,324.65,324.50,192.00,9.00,589.29,589.19,220.00,11.00,145.69,145.44,175.00,9.00,592.84,592.62,297.00,9.00,32.35,32.06,83.00,7.00,0,휴식 (Relax)
320.00,594.00,135.00,561.00,28.00,13.45,17.99,14.87,48.66,42.85,68.32,8.13,56.00,19.05,36.58,19.05,55.00,19.05,97.73,19.05,11.00,9.80,9.04,6.49,48.26,21.61,73.79,31.73,41.00,9.24,19.61,37.72,59.24,63.72,158.19,51.57,11.00,4.98,15.20,16.41,15.26,8.71,28.12,11.06,35.00,323.64,323.50,184.00,9.00,589.29,589.19,242.00,12.00,145.09,144.81,202.00,11.00,592.18,591.94,341.00,9.00,32.35,32.06,83.00,7.00,0,휴식 (Relax)
328.00,605.00,140.00,594.00,36.00,13.45,17.99,14.87,48.66,42.85,68.32,8.13,56.00,28.74,34.89,11.91,66.00,11.91,97.11,28.74,22.00,8.51,6.90,2.92,53.24,24.62,70.91,28.72,46.00,9.24,19.61,37.72,59.24,63.72,158.19,51.57,11.00,4.85,13.40,13.41,17.03,5.72,31.12,8.71,38.00,323.64,323.50,176.00,9.00,589.99,589.88,242.00,11.00,144.78,144.50,201.00,11.00,592.18,591.94,374.00,10.00,32.55,32.25,84.00,7.00,0,휴식 (Relax)
296.00,561.00,156.00,605.00,31.00,27.65,8.98,15.78,64.50,26.87,83.42,23.84,72.00,6.74,24.81,33.91,69.57,10.09,113.74,50.74,44.00,11.35,5.54,7.91,53.00,29.38,72.08,28.24,51.00,19.59,26.01,38.17,56.09,73.73,158.04,49.02,0.00,6.53,15.32,12.68,13.60,8.57,27.99,11.62,33.00,322.69,322.50,184.00,9.00,588.65,588.50,264.00,11.00,145.11,144.81,206.00,11.00,592.88,592.62,385.00,10.00,32.82,32.56,79.00,7.00,0,휴식 (Relax)
344.00,616.00,135.00,594.00,33.00,22.23,15.54,21.25,64.00,25.45,90.59,31.10,80.00,17.42,34.09,31.39,59.24,17.55,124.64,61.05,55.00,6.95,9.42,7.40,48.00,30.35,76.47,30.46,56.00,19.59,26.01,38.17,56.09,73.73,158.04,49.02,0.00,6.19,12.42,9.91,16.12,8.20,28.67,13.13,30.00,323.22,323.00,216.00,9.00,589.37,589.19,297.00,11.00,144.82,144.50,211.00,11.00,592.88,592.62,374.00,10.00,32.62,32.38,81.00,7.00,0,휴식 (Relax)
320.00,594.00,151.00,605.00,36.00,22.23,15.54,21.25,64.00,25.45,90.59,31.10,80.00,27.44,44.69,41.55,64.14,22.21,118.22,53.25,44.00,2.46,14.28,12.36,48.26,34.41,71.71,26.62,51.00,11.76,20.04,33.23,55.00,84.01,147.04,43.17,11.00,6.19,12.42,9.91,16.12,8.20,28.67,13.13,30.00,323.22,323.00,232.00,9.00,590.05,589.88,297.00,10.00,144.49,144.19,201.00,11.00,592.17,591.94,341.00,9.00,32.62,32.38,81.00,7.00,0,휴식 (Relax)
312.00,583.00,135.00,572.00,33.00,25.15,16.90,28.04,65.97,17.69,98.48,28.78,64.00,18.28,38.13,31.45,46.67,43.76,124.44,50.69,22.00,7.33,12.21,10.95,43.29,38.65,69.62,22.02,46.00,11.76,20.04,33.23,55.00,84.01,147.04,43.17,11.00,6.19,12.42,9.91,16.12,8.20,28.67,13.13,30.00,322.23,322.00,232.00,8.00,588.67,588.50,297.00,11.00,144.77,144.50,196.00,11.00,592.17,591.94,352.00,9.00,32.62,32.38,79.00,6.00,0,휴식 (Relax)
320.00,605.00,135.00,583.00,31.00,25.15,16.90,28.04,65.97,17.69,98.48,28.78,64.00,16.48,31.67,23.02,39.66,47.68,134.59,56.71,11.00,9.12,14.30,7.92,44.38,39.81,77.09,6.09,30.00,18.21,30.59,43.35,56.09,79.89,147.69,32.95,22.00,3.39,11.31,6.92,14.87,9.62,30.23,11.84,27.00,322.23,322.00,232.00,8.00,589.37,589.19,286.00,11.00,143.78,143.50,196.00,11.00,591.49,591.25,363.00,9.00,32.79,32.56,78.00,6.00,0,휴식 (Relax)
328.00,583.00,162.00,627.00,39.00,33.25,9.57,31.34,71.55,10.82,85.63,18.85,80.00,24.29,12.35,7.63,24.60,64.14,114.71,39.11,33.00,2.62,18.36,15.21,55.11,31.92,87.89,5.20,19.00,16.25,17.56,53.34,88.68,47.04,174.43,1.48,55.00,4.65,5.95,7.83,7.81,2.68,32.72,18.16,35.00,323.22,323.00,216.00,8.00,590.70,590.56,275.00,11.00,144.53,144.19,217.00,12.00,593.61,593.31,396.00,9.00,33.32,33.06,81.00,5.00,0,휴식 (Relax)
304.00,583.00,135.00,551.00,26.00,13.76,24.57,2.46,45.25,42.63,88.57,23.40,112.00,21.81,23.34,4.68,15.56,73.62,111.91,29.31,44.00,7.53,8.48,9.47,54.01,22.54,96.28,15.16,9.00,22.24,16.94,23.36,90.47,41.87,205.79,31.54,87.00,4.65,5.95,7.83,7.81,2.68,32.72,18.16,35.00,321.24,321.00,240.00,9.00,590.01,589.88,275.00,11.00,143.92,143.56,239.00,12.00,591.70,591.31,450.00,9.00,33.32,33.06,78.00,5.00,0,휴식 (Relax)
336.00,605.00,140.00,594.00,36.00,13.76,24.57,2.46,45.25,42.63,88.57,23.40,112.00,20.17,17.15,12.83,24.60,73.33,118.25,18.53,55.00,7.53,8.48,9.47,54.01,22.54,96.28,15.16,9.00,33.21,23.48,27.32,101.20,31.11,199.77,22.07,76.00,4.64,11.81,9.29,5.00,3.48,27.39,12.49,29.00,321.24,321.00,240.00,9.00,590.71,590.56,286.00,11.00,143.92,143.56,239.00,11.00,591.00,590.62,471.00,9.00,32.88,32.69,72.00,7.00,0,휴식 (Relax)
304.00,583.00,162.00,616.00,31.00,13.76,24.57,2.46,45.25,42.63,88.57,23.40,112.00,20.17,17.15,12.83,24.60,73.33,118.25,18.53,55.00,13.56,20.68,10.33,56.32,8.97,106.12,13.15,26.00,10.75,39.40,7.68,112.77,28.91,209.74,29.01,43.00,2.30,9.72,4.47,0.00,7.53,26.56,9.70,24.00,321.24,321.00,240.00,9.00,590.71,590.56,297.00,11.00,145.05,144.62,256.00,11.00,593.09,592.69,493.00,9.00,33.15,33.00,70.00,6.00,0,휴식 (Relax)
336.00,594.00,145.00,583.00,31.00,13.76,24.57,2.46,45.25,42.63,88.57,23.40,112.00,20.17,17.15,12.83,24.60,73.33,118.25,18.53,55.00,18.55,22.98,14.59,61.13,13.96,101.14,9.59,21.00,10.75,39.40,7.68,112.77,28.91,209.74,29.01,43.00,3.05,8.79,4.90,2.00,7.79,27.91,9.90,22.00,321.24,321.00,264.00,10.00,590.71,590.56,297.00,11.00,145.36,144.94,257.00,10.00,593.09,592.69,493.00,9.00,33.03,32.88,67.00,7.00,0,휴식 (Relax)
328.00,594.00,145.00,594.00,33.00,13.76,24.57,2.46,45.25,42.63,88.57,23.40,112.00,11.87,27.52,1.86,31.11,70.38,117.31,26.64,44.00,9.08,27.44,18.79,64.88,20.47,92.84,5.78,10.00,14.85,31.70,24.22,124.81,31.51,189.51,7.22,65.00,5.89,6.14,3.58,3.61,10.34,24.91,8.58,25.00,321.24,321.00,264.00,9.00,591.40,591.25,286.00,10.00,144.64,144.25,231.00,9.00,591.69,591.31,460.00,9.00,32.83,32.69,66.00,7.00,0,휴식 (Relax)
312.00,572.00,145.00,583.00,31.00,6.42,21.34,8.17,51.22,35.58,95.63,30.49,104.00,32.54,25.30,22.44,22.00,49.00,133.24,42.95,22.00,20.27,12.94,6.17,51.62,21.44,93.57,16.71,5.00,11.12,25.60,18.95,116.28,42.48,185.93,6.98,76.00,7.87,4.19,1.76,3.00,8.91,26.39,9.98,23.00,320.74,320.50,280.00,10.00,590.04,589.88,308.00,11.00,145.53,145.19,221.00,10.00,592.36,592.00,460.00,10.00,32.71,32.56,68.00,7.00,0,휴식 (Relax)
336.00,605.00,145.00,594.00,28.00,20.19,19.04,12.44,43.08,24.58,110.95,46.49,88.00,21.84,16.12,21.75,11.00,42.97,144.20,50.27,11.00,23.96,8.58,10.07,54.41,25.13,89.66,13.46,0.00,18.97,15.84,28.49,123.75,40.31,181.09,4.82,65.00,12.47,4.75,3.63,2.00,8.07,26.48,5.49,28.00,321.76,321.50,304.00,11.00,590.74,590.56,319.00,11.00,145.84,145.50,199.00,9.00,593.04,592.69,427.00,10.00,32.42,32.25,71.00,7.00,0,휴식 (Relax)
336.00,572.00,162.00,616.00,39.00,34.25,17.84,26.98,58.24,19.83,104.01,32.16,104.00,21.84,16.12,21.75,11.00,42.97,144.20,50.27,11.00,23.96,8.58,10.07,54.41,25.13,89.66,13.46,0.00,8.26,26.76,21.91,116.18,50.41,170.83,14.65,54.00,8.82,1.36,4.77,6.32,4.17,31.40,1.43,34.00,322.78,322.50,304.00,11.00,590.74,590.56,330.00,11.00,145.84,145.50,189.00,9.00,592.32,592.00,383.00,9.00,32.83,32.62,77.00,7.00,0,휴식 (Relax)
304.00,594.00,135.00,572.00,28.00,25.26,28.27,29.82,56.00,9.04,111.29,26.37,120.00,21.84,16.12,21.75,11.00,42.97,144.20,50.27,11.00,23.96,8.58,10.07,54.41,25.13,89.66,13.46,0.00,19.26,21.52,16.77,108.19,58.50,160.78,24.37,43.00,8.82,1.36,4.77,6.32,4.17,31.40,1.43,34.00,321.81,321.50,328.00,11.00,590.74,590.56,341.00,12.00,145.84,145.50,211.00,10.00,592.97,592.69,394.00,9.00,32.83,32.62,80.00,7.00,0,휴식 (Relax)
352.00,605.00,151.00,605.00,33.00,34.13,6.09,6.04,32.00,15.24,134.68,40.47,144.00,21.84,16.12,21.75,11.00,42.97,144.20,50.27,11.00,23.50,19.53,1.47,45.97,35.83,89.29,11.57,11.00,29.67,28.50,6.27,100.66,62.50,164.91,18.07,54.00,8.20,3.71,5.97,9.22,6.28,29.94,3.69,31.00,323.39,323.00,344.00,11.00,590.74,590.56,308.00,11.00,146.52,146.19,211.00,10.00,593.67,593.38,416.00,10.00,32.63,32.44,80.00,7.00,0,휴식 (Relax)
328.00,594.00,145.00,616.00,39.00,54.13,33.13,32.02,45.25,31.49,109.36,13.15,112.00,44.37,46.11,12.35,22.00,20.36,111.33,36.56,22.00,27.85,13.40,11.70,39.12,42.91,82.12,15.16,22.00,38.98,39.48,7.27,109.20,51.52,169.20,21.01,43.00,13.61,4.89,2.73,10.82,9.09,33.32,11.69,23.00,325.32,325.00,320.00,10.00,592.75,592.62,264.00,10.00,145.81,145.50,196.00,10.00,594.38,594.06,416.00,9.00,33.17,32.94,84.00,7.00,0,휴식 (Relax)
320.00,583.00,140.00,583.00,31.00,46.51,19.04,27.51,32.98,52.25,110.95,15.41,88.00,11.99,24.74,26.38,39.66,13.11,93.95,37.53,55.00,23.83,11.81,10.25,43.42,41.34,77.17,17.37,27.00,33.02,33.08,6.52,102.93,49.22,179.55,25.07,32.00,11.65,3.23,1.50,9.22,8.61,35.26,13.56,21.00,323.78,323.50,304.00,10.00,590.66,590.56,253.00,11.00,146.11,145.81,185.00,9.00,593.70,593.38,438.00,11.00,33.04,32.81,89.00,8.00,0,휴식 (Relax)
328.00,594.00,140.00,583.00,33.00,44.75,15.87,19.65,25.30,52.84,117.59,21.25,80.00,11.99,24.74,26.38,39.66,13.11,93.95,37.53,55.00,34.48,21.59,4.89,49.68,30.47,68.74,22.33,38.00,38.85,44.71,27.92,122.09,31.64,160.04,29.90,54.00,8.71,4.30,4.32,11.40,11.53,32.76,11.51,24.00,324.28,324.00,304.00,11.00,590.66,590.56,253.00,11.00,145.42,145.12,169.00,8.00,592.32,592.00,405.00,10.00,32.85,32.62,88.00,8.00,0,휴식 (Relax)
312.00,561.00,156.00,605.00,33.00,44.75,15.87,19.65,25.30,52.84,117.59,21.25,80.00,11.99,46.34,26.38,24.60,13.11,114.45,37.53,77.00,14.37,9.42,24.74,36.24,26.06,71.14,35.02,59.00,22.67,11.71,36.80,111.20,11.22,154.42,60.35,87.00,8.71,4.30,4.32,11.40,11.53,32.76,11.51,24.00,324.28,324.00,312.00,12.00,589.33,589.19,264.00,11.00,146.73,146.44,185.00,9.00,594.36,594.06,416.00,9.00,32.85,32.62,86.00,8.00,0,휴식 (Relax)
336.00,605.00,135.00,572.00,28.00,33.44,2.94,31.28,40.79,41.08,126.96,28.71,64.00,11.99,46.34,26.38,24.60,13.11,114.45,37.53,77.00,14.37,9.42,24.74,36.24,26.06,71.14,35.02,59.00,28.22,21.01,26.80,100.44,22.19,161.87,71.28,98.00,7.57,6.84,3.64,9.22,10.17,34.57,12.24,27.00,325.29,325.00,328.00,12.00,589.33,589.19,286.00,11.00,146.73,146.44,179.00,9.00,593.70,593.38,405.00,11.00,32.68,32.44,83.00,8.00,0,휴식 (Relax)
328.00,572.00,156.00,616.00,39.00,33.44,2.94,31.28,40.79,41.08,126.96,28.71,64.00,22.58,49.09,16.51,31.11,3.28,118.52,33.80,88.00,17.27,3.63,28.76,33.84,23.16,65.37,34.73,53.00,38.35,27.11,30.11,98.62,20.10,150.87,61.82,87.00,7.57,6.84,3.64,9.22,10.17,34.57,12.24,27.00,325.29,325.00,312.00,11.00,588.65,588.50,319.00,12.00,146.32,146.06,173.00,9.00,592.97,592.69,373.00,11.00,32.68,32.44,81.00,8.00,0,휴식 (Relax)
296.00,594.00,140.00,583.00,24.00,41.36,5.10,33.97,48.66,33.12,133.29,30.05,72.00,14.76,54.53,17.97,24.60,7.80,115.07,29.16,99.00,16.64,7.13,24.28,29.15,26.92,63.13,37.11,48.00,6.62,42.28,3.46,66.91,51.48,129.79,51.17,55.00,8.82,6.28,2.33,10.63,9.49,36.15,14.09,29.00,324.83,324.50,312.00,11.00,589.34,589.19,319.00,12.00,146.62,146.38,184.00,10.00,594.88,594.69,363.00,10.00,32.58,32.31,86.00,8.00,0,휴식 (Relax)
361.00,605.00,145.00,605.00,33.00,18.44,21.38,9.17,50.92,35.37,158.07,49.89,97.00,14.76,54.53,17.97,24.60,7.80,115.07,29.16,99.00,19.21,9.80,25.34,27.66,22.73,61.56,33.18,53.00,7.33,53.25,14.39,66.00,47.04,128.55,48.64,66.00,11.64,4.29,4.90,12.81,7.32,35.85,11.10,26.00,326.50,326.06,345.00,11.00,589.34,589.19,308.00,11.00,146.92,146.69,167.00,9.00,595.58,595.38,363.00,10.00,32.38,32.12,90.00,8.00,0,휴식 (Relax)
320.00,583.00,151.00,627.00,36.00,16.97,35.58,17.20,66.22,19.43,148.76,33.98,81.00,14.76,54.53,17.97,24.60,7.80,115.07,29.16,99.00,11.13,14.63,14.40,17.09,27.50,52.21,22.99,64.00,18.21,61.02,20.81,77.00,39.30,137.05,54.91,55.00,6.67,9.19,3.97,16.40,2.89,39.36,6.89,21.00,327.46,327.06,354.00,11.00,589.34,589.19,319.00,11.00,146.18,146.00,156.00,9.00,596.29,596.06,352.00,9.00,32.71,32.44,93.00,8.00,0,휴식 (Relax)
320.00,572.00,145.00,561.00,31.00,12.76,32.46,10.24,72.01,21.54,152.85,18.99,65.00,17.97,55.06,29.16,45.35,14.76,106.05,7.80,121.00,11.13,14.63,14.40,17.09,27.50,52.21,22.99,64.00,7.09,63.49,34.69,80.08,19.31,158.90,75.05,33.00,6.67,9.19,3.97,16.40,2.89,39.36,6.89,21.00,326.46,326.06,346.00,11.00,587.98,587.81,330.00,11.00,146.18,146.00,162.00,10.00,594.97,594.69,407.00,10.00,32.71,32.44,96.00,9.00,0,휴식 (Relax)
320.00,594.00,135.00,583.00,33.00,14.60,38.73,18.16,79.20,13.64,145.79,24.88,73.00,17.97,55.06,29.16,45.35,14.76,106.05,7.80,121.00,2.90,22.59,21.90,26.68,30.60,47.22,13.84,74.00,17.61,73.35,44.34,90.71,19.87,152.24,64.07,44.00,6.67,9.19,3.97,16.40,2.89,39.36,6.89,21.00,325.96,325.56,330.00,10.00,587.98,587.81,330.00,11.00,145.58,145.38,172.00,10.00,594.29,594.00,418.00,9.00,32.71,32.44,96.00,9.00,0,휴식 (Relax)
320.00,594.00,156.00,627.00,36.00,15.80,30.90,15.94,82.86,14.44,138.13,29.86,81.00,27.63,33.98,51.07,66.91,32.88,85.53,29.53,99.00,12.98,22.19,14.47,26.48,24.95,52.06,11.47,85.00,27.02,35.68,63.85,110.00,31.98,165.18,30.77,88.00,7.30,7.35,3.39,13.93,4.75,39.87,6.98,26.00,326.44,326.06,306.00,9.00,589.34,589.19,297.00,10.00,146.29,146.06,193.00,11.00,597.09,596.75,451.00,11.00,33.02,32.75,96.00,9.00,0,휴식 (Relax)
320.00,605.00,125.00,561.00,31.00,11.95,41.62,6.94,69.40,30.44,131.44,38.87,97.00,27.63,33.98,51.07,66.91,32.88,85.53,29.53,99.00,7.83,12.10,15.53,7.81,5.01,71.66,28.36,105.00,9.72,48.07,36.09,85.91,45.21,196.44,43.39,121.00,9.79,5.45,3.23,16.76,2.78,37.47,7.62,23.00,325.44,325.06,306.00,9.00,589.34,589.19,275.00,9.00,145.14,144.81,207.00,11.00,595.09,594.69,495.00,11.00,33.19,32.94,90.00,9.00,0,휴식 (Relax)
328.00,583.00,151.00,605.00,39.00,14.43,43.19,4.67,74.41,28.32,128.47,36.60,89.00,38.61,39.33,44.63,56.09,30.20,81.74,37.60,88.00,18.83,10.07,15.04,17.09,14.31,63.01,17.40,94.00,20.32,48.76,41.57,94.63,50.45,186.79,33.50,110.00,9.79,5.45,3.23,16.76,2.78,37.47,7.62,23.00,324.93,324.56,282.00,9.00,590.01,589.88,275.00,9.00,144.39,144.12,206.00,11.00,594.38,594.00,495.00,11.00,33.19,32.94,87.00,9.00,0,휴식 (Relax)
304.00,572.00,145.00,583.00,28.00,14.43,43.19,4.67,74.41,28.32,128.47,36.60,89.00,21.07,17.89,66.49,64.14,11.62,94.21,52.38,66.00,10.41,16.92,23.50,16.49,18.19,63.13,9.81,84.00,9.83,55.79,31.02,88.68,61.27,184.16,22.63,99.00,9.79,5.45,3.23,16.76,2.78,37.47,7.62,23.00,324.93,324.56,258.00,9.00,588.65,588.50,275.00,9.00,145.00,144.75,196.00,10.00,595.05,594.69,484.00,11.00,33.19,32.94,93.00,9.00,0,휴식 (Relax)
352.00,605.00,145.00,605.00,36.00,14.43,43.19,4.67,74.41,28.32,128.47,36.60,89.00,21.07,17.89,66.49,64.14,11.62,94.21,52.38,66.00,13.83,11.13,19.51,10.77,16.15,67.85,10.54,78.00,9.83,55.79,31.02,88.68,61.27,184.16,22.63,99.00,12.27,5.40,4.34,16.12,4.16,37.24,4.62,26.00,324.93,324.56,282.00,10.00,588.65,588.50,297.00,10.00,144.61,144.38,190.00,10.00,595.05,594.69,495.00,12.00,33.39,33.12,95.00,8.00,0,휴식 (Relax)
328.00,605.00,145.00,616.00,36.00,14.43,43.19,4.67,74.41,28.32,128.47,36.60,89.00,22.43,23.89,75.28,70.43,17.34,86.11,52.21,77.00,13.83,11.13,19.51,10.77,16.15,67.85,10.54,78.00,9.83,55.79,31.02,88.68,61.27,184.16,22.63,99.00,10.72,3.17,1.82,13.15,6.98,35.10,2.26,29.00,324.93,324.56,298.00,9.00,589.35,589.19,286.00,9.00,144.61,144.38,185.00,9.00,595.05,594.69,473.00,11.00,33.17,32.94,87.00,9.00,0,휴식 (Relax)
312.00,572.00,145.00,572.00,28.00,9.01,41.62,12.26,79.91,20.42,131.44,44.49,81.00,25.17,26.30,66.33,79.32,17.28,86.81,58.14,88.00,14.64,10.62,14.61,6.40,19.45,65.00,6.15,83.00,14.38,56.71,23.94,98.39,52.27,193.49,18.98,88.00,11.02,0.71,4.22,13.04,7.23,38.10,4.05,26.00,324.44,324.06,306.00,9.00,588.68,588.50,308.00,9.00,144.92,144.69,185.00,9.00,594.38,594.00,517.00,12.00,33.01,32.75,93.00,10.00,0,휴식 (Relax)
328.00,594.00,140.00,583.00,28.00,9.01,41.62,12.26,79.91,20.42,131.44,44.49,81.00,25.17,26.30,66.33,79.32,17.28,86.81,58.14,88.00,14.64,10.62,14.61,6.40,19.45,65.00,6.15,83.00,14.38,56.71,23.94,98.39,52.27,193.49,18.98,88.00,14.55,4.46,8.50,18.03,2.31,34.67,4.32,31.00,324.44,324.06,306.00,9.00,588.68,588.50,297.00,9.00,144.92,144.69,174.00,9.00,594.38,594.00,506.00,11.00,32.72,32.44,93.00,10.00,0,휴식 (Relax)
328.00,583.00,168.00,627.00,36.00,24.69,25.76,25.00,92.01,17.44,116.94,33.00,97.00,8.02,11.16,44.56,98.39,38.23,65.05,36.46,66.00,25.98,2.02,25.58,17.46,7.47,75.35,5.93,95.00,25.87,35.29,6.07,118.47,30.51,205.70,17.29,110.00,11.68,3.45,8.94,18.44,2.29,35.04,7.10,34.00,325.42,325.06,282.00,8.00,590.01,589.88,264.00,9.00,145.76,145.44,181.00,9.00,595.81,595.38,517.00,11.00,32.91,32.62,96.00,10.00,0,휴식 (Relax)
320.00,594.00,130.00,572.00,31.00,10.24,39.89,17.34,83.24,10.80,112.90,32.89,113.00,17.03,10.19,51.32,93.98,41.71,59.38,25.70,55.00,21.04,5.34,22.67,19.24,6.77,80.15,10.83,100.00,25.87,35.29,6.07,118.47,30.51,205.70,17.29,110.00,8.69,6.02,11.93,21.38,1.08,32.65,4.13,31.00,324.41,324.06,282.00,9.00,589.32,589.19,242.00,9.00,145.47,145.12,198.00,9.00,595.81,595.38,528.00,11.00,33.08,32.81,90.00,10.00,0,휴식 (Relax)
328.00,594.00,145.00,605.00,36.00,10.24,39.89,17.34,83.24,10.80,112.90,32.89,113.00,4.97,27.01,63.68,73.79,31.66,69.54,15.55,33.00,13.21,16.05,30.58,29.41,4.47,75.42,5.84,89.00,15.23,33.79,6.84,128.75,26.06,196.95,22.23,99.00,11.44,3.44,10.96,22.14,4.00,29.67,2.26,28.00,324.41,324.06,258.00,9.00,590.67,590.56,220.00,8.00,144.76,144.44,197.00,9.00,595.10,594.69,528.00,11.00,32.87,32.62,80.00,10.00,0,휴식 (Relax)
312.00,583.00,145.00,594.00,31.00,19.64,48.22,10.91,76.84,25.70,97.23,20.95,97.00,6.64,17.55,53.51,79.32,21.02,80.42,22.87,22.00,14.76,13.59,26.43,31.30,7.14,77.53,9.82,84.00,24.55,42.14,7.01,125.42,15.31,195.95,32.40,88.00,7.90,7.97,6.49,15.65,8.94,25.97,7.72,21.00,325.35,325.06,209.00,9.00,589.99,589.88,220.00,9.00,145.07,144.75,192.00,8.00,595.78,595.38,517.00,11.00,33.23,33.06,76.00,10.00,0,휴식 (Relax)
328.00,616.00,140.00,583.00,36.00,26.64,15.63,22.35,46.65,44.91,71.64,18.93,64.00,4.47,21.69,54.26,88.68,16.15,89.44,33.63,11.00,15.16,12.40,25.66,26.93,7.52,82.29,14.81,79.00,18.69,20.77,16.36,104.36,17.30,211.14,54.37,66.00,9.03,9.41,3.50,17.20,9.58,25.13,4.75,24.00,323.16,323.00,184.00,9.00,590.70,590.56,231.00,9.00,144.76,144.44,191.00,9.00,594.41,594.00,506.00,10.00,33.43,33.25,78.00,11.00,0,휴식 (Relax)
320.00,594.00,151.00,605.00,36.00,26.64,15.63,22.35,46.65,44.91,71.64,18.93,64.00,15.39,22.81,45.33,94.63,9.02,87.79,23.04,22.00,15.16,12.40,25.66,26.93,7.52,82.29,14.81,79.00,36.72,22.91,34.14,99.61,9.27,189.14,35.66,88.00,9.03,9.41,3.50,17.20,9.58,25.13,4.75,24.00,323.16,323.00,192.00,10.00,591.38,591.25,242.00,9.00,144.76,144.44,196.00,10.00,592.98,592.62,462.00,11.00,33.43,33.25,73.00,10.00,0,휴식 (Relax)
312.00,561.00,151.00,583.00,28.00,34.57,15.48,17.02,53.67,37.07,77.67,21.65,56.00,7.35,29.23,55.30,103.77,2.19,95.23,16.46,33.00,10.47,18.39,29.98,22.02,13.30,80.72,11.09,85.00,14.73,4.04,40.80,77.78,30.91,174.57,32.16,110.00,6.15,11.94,2.90,19.10,8.81,28.06,6.94,21.00,322.67,322.50,200.00,10.00,590.73,590.56,253.00,9.00,145.14,144.81,186.00,9.00,594.31,594.00,462.00,11.00,33.26,33.06,79.00,11.00,0,휴식 (Relax)
336.00,616.00,140.00,583.00,31.00,21.99,8.46,32.90,48.66,30.72,93.60,28.60,40.00,23.20,7.23,59.52,93.98,22.11,117.23,27.48,55.00,6.33,22.12,28.89,25.50,13.30,78.20,12.51,80.00,14.73,4.04,40.80,77.78,30.91,174.57,32.16,110.00,4.15,13.87,1.87,20.62,7.11,27.01,6.06,23.00,323.69,323.50,224.00,11.00,592.13,591.94,308.00,10.00,145.44,145.12,176.00,7.00,594.31,594.00,418.00,10.00,33.14,32.94,79.00,11.00,0,휴식 (Relax)
328.00,572.00,162.00,627.00,39.00,20.98,8.72,36.11,56.57,24.38,88.66,27.09,48.00,15.86,27.59,37.52,73.79,35.42,133.69,49.10,77.00,2.46,23.67,23.13,29.83,7.52,83.97,13.35,86.00,14.73,4.04,40.80,77.78,30.91,174.57,32.16,110.00,6.98,12.60,4.82,22.63,4.82,27.95,6.98,26.00,324.19,324.00,232.00,11.00,590.78,590.56,341.00,11.00,145.85,145.50,167.00,7.00,594.31,594.00,396.00,10.00,33.35,33.12,82.00,11.00,0,휴식 (Relax)
312.00,605.00,120.00,561.00,26.00,18.90,13.33,41.50,56.00,17.42,90.24,30.74,56.00,15.86,27.59,37.52,73.79,35.42,133.69,49.10,77.00,6.24,26.02,26.68,33.24,5.47,88.34,17.19,91.00,14.73,4.04,40.80,77.78,30.91,174.57,32.16,110.00,4.28,11.33,5.03,19.42,8.44,32.58,11.36,31.00,323.70,323.50,240.00,11.00,590.78,590.56,352.00,11.00,145.59,145.19,183.00,7.00,594.31,594.00,418.00,10.00,33.08,32.81,87.00,11.00,0,휴식 (Relax)
336.00,572.00,156.00,605.00,39.00,23.54,5.43,34.36,48.00,20.75,97.17,37.67,64.00,26.06,27.74,45.82,83.77,24.58,127.16,58.25,88.00,1.24,21.16,28.65,30.00,10.24,89.91,22.11,96.00,14.73,4.04,40.80,77.78,30.91,174.57,32.16,110.00,4.28,11.33,5.03,19.42,8.44,32.58,11.36,31.00,324.21,324.00,240.00,11.00,590.10,589.88,374.00,12.00,145.91,145.50,213.00,7.00,594.31,594.00,440.00,10.00,33.08,32.81,89.00,11.00,0,휴식 (Relax)
304.00,583.00,151.00,616.00,31.00,23.54,5.43,34.36,48.00,20.75,97.17,37.67,64.00,15.15,34.94,36.85,80.08,20.47,116.37,65.46,99.00,4.91,16.25,34.63,34.99,8.37,92.63,16.33,90.00,40.54,36.30,57.05,80.08,9.61,181.12,18.27,77.00,3.41,14.32,5.27,17.89,9.65,31.67,8.69,28.00,324.21,324.00,224.00,11.00,590.78,590.56,352.00,11.00,146.29,145.88,218.00,7.00,596.38,596.06,429.00,10.00,33.25,33.00,89.00,11.00,0,휴식 (Relax)
352.00,616.00,140.00,605.00,33.00,23.54,5.43,34.36,48.00,20.75,97.17,37.67,64.00,8.26,45.93,41.53,90.71,12.36,125.69,62.15,88.00,1.40,17.34,33.42,32.70,13.15,97.43,12.96,85.00,40.54,36.30,57.05,80.08,9.61,181.12,18.27,77.00,5.12,12.48,2.27,15.26,12.62,33.26,7.30,25.00,324.21,324.00,248.00,12.00,591.49,591.25,385.00,12.00,145.99,145.56,229.00,8.00,596.38,596.06,429.00,10.00,33.06,32.81,91.00,11.00,0,휴식 (Relax)
328.00,605.00,145.00,616.00,39.00,23.54,5.43,34.36,48.00,20.75,97.17,37.67,64.00,8.26,45.93,41.53,90.71,12.36,125.69,62.15,88.00,1.40,17.34,33.42,32.70,13.15,97.43,12.96,85.00,40.54,36.30,57.05,80.08,9.61,181.12,18.27,77.00,2.43,12.20,4.47,17.03,13.71,36.21,8.14,22.00,324.21,324.00,256.00,11.00,591.49,591.25,363.00,11.00,145.99,145.56,234.00,8.00,596.38,596.06,396.00,9.00,33.27,33.00,89.00,10.00,0,휴식 (Relax)
320.00,572.00,151.00,572.00,28.00,29.83,13.33,31.19,40.00,14.93,90.24,41.89,72.00,8.26,45.93,41.53,90.71,12.36,125.69,62.15,88.00,4.88,23.05,28.73,30.81,17.05,95.99,13.26,91.00,40.54,36.30,57.05,80.08,9.61,181.12,18.27,77.00,2.43,12.20,4.47,17.03,13.71,36.21,8.14,22.00,324.70,324.50,248.00,11.00,591.49,591.25,374.00,11.00,146.37,145.94,235.00,9.00,596.38,596.06,429.00,10.00,33.27,33.00,100.00,11.00,0,휴식 (Relax)
336.00,605.00,135.00,605.00,33.00,34.97,19.39,23.25,40.79,12.86,98.02,40.69,64.00,18.37,38.56,33.16,88.68,7.19,136.38,53.55,99.00,2.69,18.86,27.46,25.96,21.65,98.79,13.64,96.00,52.30,14.43,44.43,88.68,31.17,176.10,39.74,55.00,2.60,7.20,1.55,14.32,9.08,37.39,12.98,17.00,325.21,325.00,264.00,12.00,592.18,591.94,396.00,11.00,146.08,145.62,223.00,9.00,597.75,597.44,418.00,10.00,33.55,33.31,97.00,11.00,0,휴식 (Relax)
320.00,583.00,156.00,627.00,36.00,32.72,19.27,28.14,32.98,6.47,102.51,43.99,56.00,18.37,38.56,33.16,88.68,7.19,136.38,53.55,99.00,13.90,20.90,15.98,25.50,24.37,86.99,19.32,84.00,52.30,14.43,44.43,88.68,31.17,176.10,39.74,55.00,2.60,7.20,1.55,14.32,9.08,37.39,12.98,17.00,324.71,324.50,272.00,12.00,592.18,591.94,407.00,11.00,145.24,144.88,206.00,11.00,597.75,597.44,385.00,9.00,33.55,33.31,95.00,10.00,0,휴식 (Relax)
312.00,605.00,130.00,561.00,28.00,35.36,26.30,26.08,35.78,14.39,104.06,38.03,64.00,28.44,30.39,34.70,90.71,6.90,139.30,42.56,110.00,13.90,20.90,15.98,25.50,24.37,86.99,19.32,84.00,53.78,19.57,34.39,94.63,39.00,186.95,34.36,66.00,1.91,7.92,4.50,13.34,6.28,40.26,10.61,20.00,324.22,324.00,272.00,11.00,592.88,592.62,429.00,12.00,145.24,144.88,217.00,11.00,597.10,596.75,418.00,9.00,33.39,33.12,98.00,10.00,0,휴식 (Relax)
336.00,594.00,151.00,605.00,33.00,29.90,19.04,33.84,28.84,18.38,110.95,30.84,72.00,28.44,30.39,34.70,90.71,6.90,139.30,42.56,110.00,9.76,15.77,14.75,27.31,23.27,88.34,13.32,90.00,53.78,19.57,34.39,94.63,39.00,186.95,34.36,66.00,4.68,7.44,6.09,16.28,8.75,37.66,12.18,17.00,324.73,324.50,280.00,11.00,592.88,592.62,429.00,11.00,145.62,145.25,238.00,11.00,597.10,596.75,451.00,9.00,33.19,32.94,98.00,10.00,0,휴식 (Relax)
320.00,583.00,145.00,616.00,36.00,23.29,18.57,38.95,33.94,23.04,103.26,38.80,64.00,28.44,30.39,34.70,90.71,6.90,139.30,42.56,110.00,9.76,15.77,14.75,27.31,23.27,88.34,13.32,90.00,36.84,38.63,14.94,108.89,46.87,191.69,32.61,44.00,0.78,11.45,9.24,16.12,9.61,36.78,14.34,12.00,325.22,325.00,280.00,11.00,592.88,592.62,407.00,11.00,145.62,145.25,239.00,12.00,598.49,598.12,451.00,9.00,33.51,33.25,96.00,8.00,0,휴식 (Relax)
336.00,605.00,145.00,594.00,31.00,15.82,25.48,36.56,40.00,15.88,107.29,31.25,72.00,29.83,19.42,42.57,80.08,4.85,129.63,40.38,121.00,11.93,19.17,11.80,25.71,27.21,83.51,10.48,95.00,27.50,48.85,6.60,116.93,36.17,182.18,35.78,55.00,4.42,6.81,5.51,11.18,7.25,40.10,16.17,7.00,325.73,325.50,288.00,11.00,592.17,591.94,407.00,12.00,145.93,145.56,228.00,11.00,599.17,598.81,451.00,9.00,33.19,32.94,101.00,10.00,0,휴식 (Relax)
320.00,605.00,130.00,594.00,39.00,15.82,25.48,36.56,40.00,15.88,107.29,31.25,72.00,24.19,27.74,33.34,83.77,11.84,127.16,45.11,132.00,12.29,2.22,16.03,46.39,30.68,65.99,23.21,116.00,38.23,45.17,8.02,124.45,36.46,171.52,44.56,66.00,2.30,8.17,4.55,11.05,4.34,43.10,16.83,4.00,325.73,325.50,296.00,12.00,592.87,592.62,374.00,11.00,144.66,144.25,243.00,11.00,598.48,598.12,429.00,8.00,33.40,33.12,101.00,9.00,0,휴식 (Relax)
304.00,561.00,156.00,583.00,26.00,23.52,23.21,41.52,46.65,8.26,114.15,35.20,64.00,24.19,27.74,33.34,83.77,11.84,127.16,45.11,132.00,10.00,2.87,17.72,47.30,27.91,65.59,28.19,121.00,38.23,45.17,8.02,124.45,36.46,171.52,44.56,66.00,3.05,8.68,6.45,13.04,3.40,44.55,16.78,2.00,325.26,325.00,288.00,11.00,592.87,592.62,363.00,11.00,144.99,144.56,258.00,11.00,598.48,598.12,440.00,8.00,33.30,33.00,111.00,9.00,0,휴식 (Relax)
344.00,605.00,140.00,594.00,33.00,17.62,19.37,45.45,51.22,5.93,121.89,37.80,56.00,34.49,34.94,22.47,88.68,22.47,116.37,34.49,121.00,10.00,2.87,17.72,47.30,27.91,65.59,28.19,121.00,29.79,34.55,18.97,132.46,31.50,169.03,33.90,55.00,3.07,6.90,5.48,13.04,5.14,44.68,16.19,0.00,325.78,325.50,320.00,12.00,592.16,591.94,363.00,11.00,144.99,144.56,252.00,11.00,599.15,598.81,407.00,7.00,33.42,33.12,110.00,9.00,0,휴식 (Relax)
336.00,583.00,156.00,627.00,42.00,17.11,12.70,53.32,57.69,2.11,117.98,38.32,64.00,23.56,23.96,29.95,98.39,29.95,107.36,23.56,110.00,8.72,6.21,16.91,49.04,30.08,59.59,24.03,115.00,29.79,34.55,18.97,132.46,31.50,169.03,33.90,55.00,5.55,4.07,7.95,16.03,3.66,46.66,18.13,3.00,326.29,326.00,312.00,11.00,592.83,592.62,352.00,11.00,144.58,144.19,226.00,11.00,599.15,598.81,374.00,7.00,33.65,33.31,106.00,9.00,0,휴식 (Relax)
312.00,594.00,135.00,561.00,31.00,17.11,12.70,53.32,57.69,2.11,117.98,38.32,64.00,33.51,32.21,34.69,93.98,28.86,106.32,15.12,99.00,19.31,9.29,5.91,35.36,23.22,49.53,24.43,100.00,29.79,34.55,18.97,132.46,31.50,169.03,33.90,55.00,10.55,5.27,12.23,16.49,2.79,41.67,13.69,2.00,326.29,326.00,312.00,11.00,592.13,591.94,330.00,11.00,145.40,145.12,211.00,11.00,599.15,598.81,396.00,7.00,33.91,33.62,104.00,9.00,0,휴식 (Relax)
336.00,583.00,145.00,583.00,31.00,17.11,12.70,53.32,57.69,2.11,117.98,38.32,64.00,26.60,32.07,24.01,83.77,19.78,114.05,16.14,88.00,8.35,6.02,16.79,31.58,12.59,52.40,32.83,89.00,29.05,31.12,40.41,147.99,37.03,157.88,38.42,33.00,4.29,2.73,14.84,24.33,7.35,36.17,5.94,10.00,326.29,326.00,304.00,11.00,592.80,592.62,330.00,12.00,144.69,144.44,216.00,12.00,597.79,597.44,407.00,7.00,33.39,33.12,96.00,8.00,0,휴식 (Relax)
320.00,605.00,145.00,616.00,39.00,32.90,20.87,40.69,67.88,17.82,102.82,22.99,48.00,32.16,51.55,30.91,77.78,40.80,92.06,14.73,110.00,2.99,11.94,20.27,25.71,17.23,46.98,26.97,95.00,29.05,31.12,40.41,147.99,37.03,157.88,38.42,33.00,9.24,6.50,7.21,24.33,11.06,37.87,2.06,18.00,327.24,327.00,272.00,11.00,594.18,594.00,319.00,9.00,144.31,144.06,205.00,11.00,597.79,597.44,429.00,8.00,33.91,33.62,102.00,9.00,0,휴식 (Relax)
328.00,572.00,151.00,583.00,28.00,11.82,4.30,38.79,53.67,34.21,95.23,1.08,24.00,24.17,20.92,16.99,34.79,65.33,69.90,51.02,154.00,12.40,7.65,26.82,25.50,18.78,36.68,16.19,106.00,28.12,10.39,26.14,132.46,16.36,177.75,59.85,11.00,7.15,3.04,8.56,19.42,10.54,42.39,6.96,23.00,325.68,325.50,256.00,12.00,591.42,591.25,341.00,13.00,145.00,144.75,206.00,10.00,596.42,596.06,451.00,9.00,33.63,33.31,107.00,9.00,0,휴식 (Relax)
336.00,616.00,135.00,594.00,36.00,16.17,3.74,45.53,46.65,34.17,99.85,9.08,16.00,22.54,16.94,10.28,39.66,63.31,75.91,60.05,165.00,7.20,5.41,18.17,35.36,14.17,34.27,10.27,116.00,35.06,11.93,4.18,149.62,25.49,157.43,38.62,33.00,8.44,5.22,7.28,20.25,13.23,39.61,4.56,20.00,326.19,326.00,256.00,11.00,592.13,591.94,352.00,13.00,144.39,144.12,216.00,11.00,595.02,594.69,418.00,8.00,33.42,33.12,104.00,9.00,0,휴식 (Relax)
304.00,561.00,156.00,605.00,31.00,17.66,13.30,34.29,56.57,21.59,115.72,24.62,0.00,19.97,26.30,7.03,49.19,52.88,86.81,67.08,176.00,7.08,7.63,17.57,35.00,9.33,37.63,11.92,121.00,41.83,24.36,34.23,132.91,35.33,148.84,25.89,66.00,6.12,2.44,10.26,17.46,15.52,38.58,4.50,17.00,325.23,325.00,272.00,11.00,591.47,591.25,374.00,13.00,144.72,144.44,221.00,11.00,597.06,596.75,396.00,8.00,33.59,33.31,104.00,10.00,0,휴식 (Relax)
336.00,605.00,135.00,572.00,28.00,17.66,13.30,34.29,56.57,21.59,115.72,24.62,0.00,19.97,26.30,7.03,49.19,52.88,86.81,67.08,176.00,7.08,7.63,17.57,35.00,9.33,37.63,11.92,121.00,22.21,16.34,40.62,103.77,38.68,170.34,51.50,99.00,10.86,6.01,9.08,16.12,15.13,41.08,8.64,12.00,325.23,325.00,288.00,11.00,591.47,591.25,396.00,13.00,144.72,144.44,221.00,11.00,595.02,594.69,407.00,9.00,33.30,33.00,104.00,9.00,0,휴식 (Relax)
328.00,572.00,156.00,627.00,42.00,9.99,14.26,26.43,62.48,23.66,115.05,20.84,8.00,14.75,32.47,5.03,39.66,58.35,88.88,67.68,187.00,7.08,7.63,17.57,35.00,9.33,37.63,11.92,121.00,22.21,16.34,40.62,103.77,38.68,170.34,51.50,99.00,5.01,6.75,4.10,22.09,10.19,46.97,14.64,6.00,325.73,325.50,288.00,11.00,590.80,590.56,407.00,13.00,144.72,144.44,216.00,11.00,595.02,594.69,396.00,9.00,33.74,33.38,110.00,10.00,0,휴식 (Relax)
320.00,616.00,130.00,572.00,28.00,1.99,21.89,26.18,57.69,29.69,109.84,21.84,0.00,22.72,34.71,7.73,46.67,69.14,83.80,65.75,198.00,7.08,7.63,17.57,35.00,9.33,37.63,11.92,121.00,31.58,11.57,40.34,94.63,49.45,162.75,41.31,88.00,5.01,6.75,4.10,22.09,10.19,46.97,14.64,6.00,326.21,326.00,272.00,11.00,591.51,591.25,440.00,14.00,144.72,144.44,221.00,11.00,595.68,595.38,407.00,9.00,33.74,33.38,119.00,11.00,0,휴식 (Relax)
336.00,572.00,156.00,594.00,31.00,1.99,21.89,26.18,57.69,29.69,109.84,21.84,0.00,4.13,17.20,17.24,64.14,76.89,63.72,58.77,220.00,2.88,5.41,22.57,35.36,11.88,34.27,16.40,126.00,20.61,9.15,29.93,101.41,52.85,163.64,34.79,77.00,6.16,5.22,4.80,24.08,10.32,46.66,13.29,8.00,326.21,326.00,272.00,11.00,590.16,589.88,473.00,14.00,145.06,144.75,241.00,12.00,594.99,594.69,418.00,9.00,33.62,33.25,119.00,11.00,0,휴식 (Relax)
312.00,583.00,145.00,616.00,36.00,9.44,21.43,22.18,53.67,31.97,116.16,26.47,8.00,4.13,17.20,17.24,64.14,76.89,63.72,58.77,220.00,2.88,5.41,22.57,35.36,11.88,34.27,16.40,126.00,20.61,9.15,29.93,101.41,52.85,163.64,34.79,77.00,6.16,5.22,4.80,24.08,10.32,46.66,13.29,8.00,325.73,325.50,280.00,11.00,590.16,589.88,462.00,13.00,145.06,144.75,252.00,12.00,594.99,594.69,418.00,9.00,33.62,33.25,119.00,11.00,0,휴식 (Relax)
328.00,594.00,140.00,572.00,31.00,16.79,28.19,28.48,46.65,23.97,115.26,19.49,0.00,8.29,10.19,15.68,55.00,66.41,59.38,50.34,231.00,7.85,10.40,26.29,36.40,16.88,38.29,15.17,121.00,14.54,13.82,43.53,88.68,33.30,185.51,45.92,55.00,6.16,5.22,4.80,24.08,10.32,46.66,13.29,8.00,325.22,325.00,280.00,11.00,589.46,589.19,473.00,14.00,144.75,144.44,242.00,12.00,593.64,593.31,462.00,11.00,33.62,33.25,116.00,11.00,0,휴식 (Relax)
320.00,605.00,135.00,594.00,36.00,16.79,28.19,28.48,46.65,23.97,115.26,19.49,0.00,8.29,10.19,15.68,55.00,66.41,59.38,50.34,231.00,3.54,7.90,22.07,31.62,19.19,39.52,17.32,116.00,14.54,13.82,43.53,88.68,33.30,185.51,45.92,55.00,5.61,8.21,5.21,24.52,10.07,44.30,12.16,5.00,325.22,325.00,272.00,12.00,589.46,589.19,440.00,13.00,145.03,144.75,221.00,11.00,593.64,593.31,473.00,11.00,33.41,33.06,108.00,11.00,0,휴식 (Relax)
304.00,561.00,151.00,594.00,31.00,16.79,28.19,28.48,46.65,23.97,115.26,19.49,0.00,8.29,10.19,15.68,55.00,66.41,59.38,50.34,231.00,7.07,6.94,21.48,30.41,16.98,37.49,21.63,111.00,5.63,19.57,45.96,83.77,22.55,186.95,34.93,66.00,8.60,5.95,0.29,19.65,6.00,44.10,9.90,0.00,325.22,325.00,248.00,11.00,589.46,589.19,440.00,13.00,144.70,144.44,221.00,11.00,594.32,594.00,462.00,7.00,33.67,33.38,106.00,12.00,0,휴식 (Relax)
336.00,616.00,130.00,583.00,33.00,19.27,26.91,20.66,43.08,16.98,109.31,26.57,8.00,13.33,4.93,17.39,49.19,74.99,69.40,40.51,242.00,15.49,8.14,12.81,20.62,26.97,46.77,11.69,121.00,15.77,8.58,34.98,73.79,18.14,195.97,24.88,77.00,8.60,5.95,0.29,19.65,6.00,44.10,9.90,0.00,324.70,324.50,272.00,12.00,590.17,589.88,473.00,13.00,144.12,143.81,226.00,11.00,593.64,593.31,440.00,11.00,33.67,33.38,99.00,11.00,0,휴식 (Relax)
320.00,561.00,162.00,616.00,39.00,26.57,19.04,16.98,28.84,20.66,110.95,19.27,8.00,9.87,17.55,35.73,31.11,73.03,80.42,32.20,264.00,11.84,9.99,18.33,20.02,29.99,52.25,6.07,127.00,26.68,8.37,31.65,69.57,10.38,185.19,32.90,66.00,5.63,2.99,2.71,16.76,6.84,41.10,12.58,3.00,323.69,323.50,264.00,12.00,588.83,588.50,517.00,13.00,144.53,144.19,237.00,11.00,592.92,592.62,407.00,11.00,33.45,33.19,94.00,11.00,0,휴식 (Relax)
304.00,605.00,125.00,572.00,31.00,30.42,13.30,24.89,33.94,25.70,115.72,18.83,0.00,7.91,13.67,29.11,39.66,63.32,79.67,37.04,275.00,16.04,1.67,20.35,30.02,26.06,56.81,7.81,137.00,17.74,2.78,22.91,59.24,0.91,179.38,39.74,55.00,5.63,2.99,2.71,16.76,6.84,41.10,12.58,3.00,323.21,323.00,256.00,11.00,589.53,589.19,550.00,13.00,143.97,143.56,264.00,11.00,593.57,593.31,429.00,12.00,33.45,33.19,102.00,12.00,0,휴식 (Relax)
320.00,583.00,145.00,583.00,31.00,37.46,3.74,35.58,46.65,12.82,99.85,27.40,16.00,7.91,13.67,29.11,39.66,63.32,79.67,37.04,275.00,16.04,1.67,20.35,30.02,26.06,56.81,7.81,137.00,17.74,2.78,22.91,59.24,0.91,179.38,39.74,55.00,5.63,2.99,2.71,16.76,6.84,41.10,12.58,3.00,322.19,322.00,256.00,10.00,589.53,589.19,550.00,13.00,143.97,143.56,284.00,12.00,593.57,593.31,407.00,11.00,33.45,33.19,94.00,11.00,0,휴식 (Relax)
328.00,594.00,145.00,616.00,39.00,36.19,8.46,38.44,51.22,18.33,93.60,35.05,24.00,3.97,2.67,18.81,49.19,61.46,90.67,26.33,264.00,16.04,1.67,20.35,30.02,26.06,56.81,7.81,137.00,17.74,2.78,22.91,59.24,0.91,179.38,39.74,55.00,5.63,2.99,2.71,16.76,6.84,41.10,12.58,3.00,322.69,322.50,256.00,10.00,588.83,588.50,528.00,13.00,143.97,143.56,278.00,12.00,593.57,593.31,407.00,11.00,33.45,33.19,91.00,11.00,0,휴식 (Relax)
320.00,572.00,151.00,572.00,28.00,34.34,2.75,30.47,45.25,25.52,93.25,42.99,32.00,3.97,2.67,18.81,49.19,61.46,90.67,26.33,264.00,16.04,1.67,20.35,30.02,26.06,56.81,7.81,137.00,16.93,13.51,13.42,56.09,10.17,190.05,36.96,44.00,5.63,2.99,2.71,16.76,6.84,41.10,12.58,3.00,322.19,322.00,256.00,11.00,588.83,588.50,506.00,13.00,143.97,143.56,268.00,11.00,592.90,592.62,440.00,11.00,33.45,33.19,94.00,11.00,0,휴식 (Relax)
320.00,616.00,125.00,583.00,36.00,29.93,18.05,29.93,57.69,29.93,82.72,29.93,16.00,3.97,2.67,18.81,49.19,61.46,90.67,26.33,264.00,11.01,9.99,12.18,40.01,35.87,52.25,16.00,147.00,18.84,23.09,6.11,66.91,12.08,184.59,43.38,55.00,5.63,2.99,2.71,16.76,6.84,41.10,12.58,3.00,321.17,321.00,224.00,10.00,588.83,588.50,495.00,13.00,143.40,142.94,273.00,11.00,592.22,591.94,440.00,11.00,33.45,33.19,97.00,11.00,0,휴식 (Relax)
320.00,561.00,174.00,627.00,28.00,39.29,11.48,14.35,50.60,45.80,66.90,27.57,0.00,3.97,2.67,18.81,49.19,61.46,90.67,26.33,264.00,25.59,11.43,17.03,43.46,43.57,61.48,31.38,165.00,27.77,24.83,17.11,66.91,33.79,192.08,63.92,77.00,8.27,4.71,5.27,19.65,6.66,41.16,11.81,6.00,322.14,322.00,192.00,9.00,588.83,588.50,506.00,13.00,144.69,144.06,301.00,11.00,593.65,593.31,451.00,11.00,33.28,33.00,102.00,11.00,0,휴식 (Relax)
328.00,594.00,130.00,572.00,31.00,31.99,6.77,20.55,43.08,48.70,60.55,32.36,8.00,9.53,13.67,17.19,59.24,72.43,79.67,25.68,253.00,20.60,6.71,19.18,38.91,41.23,66.45,35.16,170.00,27.77,24.83,17.11,66.91,33.79,192.08,63.92,77.00,5.27,5.27,6.02,20.62,4.40,39.22,10.61,9.00,321.63,321.50,192.00,10.00,588.13,587.81,506.00,13.00,144.40,143.75,324.00,11.00,593.65,593.31,451.00,11.00,33.45,33.19,91.00,11.00,0,휴식 (Relax)
344.00,594.00,156.00,605.00,36.00,47.96,21.97,27.95,51.22,39.86,61.17,47.35,24.00,16.41,15.67,37.69,70.43,82.11,65.97,41.62,231.00,20.60,6.71,19.18,38.91,41.23,66.45,35.16,170.00,5.86,12.91,37.41,73.79,52.66,172.04,45.66,55.00,11.07,1.86,0.65,15.26,2.06,33.26,8.30,15.00,322.67,322.50,200.00,9.00,589.50,589.19,462.00,12.00,144.40,143.75,324.00,11.00,592.22,591.94,429.00,11.00,33.01,32.81,82.00,10.00,0,휴식 (Relax)
296.00,572.00,135.00,583.00,33.00,26.60,14.06,10.21,71.55,15.89,81.94,71.27,48.00,27.59,28.51,37.19,45.35,67.88,87.51,85.34,187.00,24.32,6.42,18.74,34.48,43.20,66.10,34.92,165.00,16.19,8.66,31.95,64.14,61.12,168.76,41.92,44.00,7.37,5.73,4.39,13.34,6.79,29.45,7.50,20.00,321.24,321.00,232.00,9.00,586.72,586.44,440.00,12.00,144.69,144.06,319.00,11.00,592.89,592.62,429.00,11.00,33.30,33.12,82.00,11.00,0,휴식 (Relax)
344.00,594.00,151.00,594.00,31.00,31.40,7.04,5.78,68.35,15.47,89.52,78.52,56.00,11.32,18.79,16.50,24.60,47.92,109.49,106.48,165.00,22.27,9.70,14.14,32.31,40.09,69.61,37.21,160.00,16.19,8.66,31.95,64.14,61.12,168.76,41.92,44.00,7.37,5.73,4.39,13.34,6.79,29.45,7.50,20.00,321.76,321.50,256.00,9.00,588.08,587.81,451.00,13.00,144.36,143.75,324.00,12.00,592.89,592.62,418.00,12.00,33.30,33.12,79.00,10.00,0,휴식 (Relax)
328.00,605.00,140.00,605.00,39.00,39.91,8.98,10.67,83.52,2.98,83.42,68.44,40.00,25.62,37.93,29.25,24.60,66.72,94.70,89.85,187.00,23.16,14.67,10.84,27.73,44.97,64.61,33.34,165.00,13.70,19.61,22.30,55.00,72.01,158.19,37.27,55.00,8.40,7.26,2.95,14.32,4.66,31.58,6.25,23.00,322.76,322.50,256.00,8.00,589.47,589.19,451.00,12.00,144.05,143.44,330.00,12.00,592.18,591.94,385.00,11.00,33.51,33.31,82.00,10.00,0,휴식 (Relax)
312.00,572.00,145.00,572.00,28.00,37.58,11.16,17.17,80.40,13.78,91.93,67.11,24.00,3.92,20.29,16.33,11.00,68.97,99.97,84.03,209.00,20.39,12.12,8.92,25.96,46.16,61.26,28.66,170.00,13.70,19.61,22.30,55.00,72.01,158.19,37.27,55.00,6.29,8.02,5.88,11.66,1.80,34.58,5.16,26.00,321.76,321.50,264.00,8.00,588.11,587.81,473.00,13.00,144.36,143.75,330.00,13.00,592.18,591.94,396.00,11.00,33.34,33.12,88.00,10.00,0,휴식 (Relax)
336.00,627.00,130.00,583.00,33.00,33.75,5.60,8.71,64.50,23.64,107.78,75.17,8.00,25.92,27.90,11.58,11.00,53.25,120.28,91.97,231.00,24.46,11.06,13.82,30.81,42.41,61.87,23.66,175.00,23.50,23.12,33.19,64.14,65.88,155.40,27.97,66.00,4.07,10.89,7.86,13.45,3.32,32.61,7.11,23.00,322.78,322.50,272.00,9.00,589.55,589.19,484.00,13.00,144.07,143.44,329.00,13.00,591.50,591.25,407.00,11.00,33.15,32.94,88.00,9.00,0,휴식 (Relax)
320.00,561.00,168.00,627.00,36.00,31.09,21.34,24.52,64.50,31.14,95.63,62.15,24.00,25.92,27.90,11.58,11.00,53.25,120.28,91.97,231.00,8.19,26.00,15.30,38.42,27.74,76.31,10.25,192.00,9.57,44.28,33.44,85.91,33.44,175.24,9.57,99.00,8.71,7.07,10.50,10.30,5.49,33.50,11.99,18.00,323.75,323.50,256.00,9.00,589.55,589.19,495.00,13.00,145.24,144.50,346.00,13.00,593.62,593.31,440.00,11.00,33.46,33.25,89.00,9.00,0,휴식 (Relax)
328.00,605.00,130.00,583.00,31.00,34.38,17.35,21.97,56.57,38.77,95.77,54.55,32.00,19.68,36.63,22.58,22.00,55.70,116.89,81.53,220.00,8.19,26.00,15.30,38.42,27.74,76.31,10.25,192.00,9.57,44.28,33.44,85.91,33.44,175.24,9.57,99.00,6.74,7.11,8.68,8.60,5.37,35.23,13.95,16.00,323.23,323.00,248.00,9.00,588.83,588.50,484.00,13.00,145.24,144.50,352.00,13.00,593.62,593.31,451.00,11.00,33.34,33.12,88.00,9.00,0,휴식 (Relax)
336.00,583.00,156.00,605.00,36.00,23.65,17.72,11.78,56.57,43.69,108.25,38.58,48.00,29.43,16.01,25.00,31.11,41.67,129.17,59.57,198.00,14.07,24.86,15.91,42.43,21.79,73.66,10.30,186.00,7.01,39.82,32.40,94.63,24.55,167.15,15.31,88.00,4.52,5.89,9.39,7.28,8.11,32.36,11.56,19.00,324.25,324.00,240.00,9.00,590.17,589.88,462.00,13.00,144.83,144.12,341.00,13.00,592.92,592.62,429.00,11.00,33.13,32.94,85.00,10.00,0,휴식 (Relax)
312.00,594.00,135.00,572.00,28.00,18.09,17.22,4.08,48.66,49.15,100.36,45.88,40.00,26.61,21.45,14.32,24.60,30.76,140.09,49.97,187.00,7.60,19.84,6.05,36.06,18.71,77.78,13.70,176.00,7.01,39.82,32.40,94.63,24.55,167.15,15.31,88.00,4.80,3.78,12.39,10.20,6.52,33.85,13.15,16.00,324.72,324.50,248.00,10.00,589.47,589.19,451.00,13.00,145.39,144.75,342.00,13.00,592.92,592.62,451.00,12.00,32.96,32.75,93.00,11.00,0,휴식 (Relax)
328.00,583.00,151.00,583.00,31.00,12.08,14.19,5.58,48.00,41.96,105.18,40.57,48.00,26.61,21.45,14.32,24.60,30.76,140.09,49.97,187.00,10.25,14.73,5.30,41.18,13.60,72.08,13.04,182.00,7.01,39.82,32.40,94.63,24.55,167.15,15.31,88.00,4.80,3.78,12.39,10.20,6.52,33.85,13.15,16.00,325.22,325.00,256.00,10.00,589.47,589.19,451.00,13.00,145.77,145.12,358.00,13.00,592.92,592.62,429.00,11.00,32.96,32.75,88.00,10.00,0,휴식 (Relax)
328.00,594.00,145.00,616.00,42.00,12.08,14.19,5.58,48.00,41.96,105.18,40.57,48.00,26.61,21.45,14.32,24.60,30.76,140.09,49.97,187.00,10.25,14.73,5.30,41.18,13.60,72.08,13.04,182.00,7.01,39.82,32.40,94.63,24.55,167.15,15.31,88.00,2.28,6.55,14.68,13.15,3.95,36.43,13.85,19.00,325.22,325.00,248.00,9.00,589.47,589.19,440.00,13.00,145.77,145.12,358.00,13.00,592.92,592.62,418.00,11.00,33.19,32.94,88.00,10.00,0,휴식 (Relax)
304.00,583.00,140.00,572.00,28.00,28.02,30.12,18.39,50.60,27.02,118.07,41.61,32.00,17.42,32.45,9.41,34.79,40.58,133.50,52.93,176.00,0.86,23.12,10.51,51.08,16.35,76.31,8.10,171.00,7.01,39.82,32.40,94.63,24.55,167.15,15.31,88.00,2.28,6.55,14.68,13.15,3.95,36.43,13.85,19.00,324.26,324.00,272.00,10.00,590.14,589.88,407.00,13.00,145.09,144.44,337.00,14.00,592.92,592.62,451.00,12.00,33.19,32.94,94.00,10.00,0,휴식 (Relax)
344.00,605.00,140.00,583.00,39.00,9.55,23.00,18.81,28.84,18.17,141.70,45.18,8.00,28.02,26.04,4.08,33.00,41.96,122.69,61.07,165.00,14.48,24.19,9.53,47.27,14.99,72.96,14.80,156.00,7.01,39.82,32.40,94.63,24.55,167.15,15.31,88.00,0.75,6.37,14.54,10.20,6.95,37.99,16.61,22.00,325.79,325.50,312.00,11.00,589.43,589.19,374.00,13.00,145.94,145.38,288.00,11.00,592.92,592.62,418.00,11.00,33.40,33.12,97.00,9.00,0,휴식 (Relax)
304.00,561.00,168.00,605.00,26.00,17.51,13.41,6.23,24.00,34.02,151.62,48.35,8.00,28.02,26.04,4.08,33.00,41.96,122.69,61.07,165.00,9.06,18.80,4.68,41.30,11.69,68.31,18.96,150.00,24.70,19.82,51.12,77.78,2.67,152.72,25.33,66.00,1.47,7.69,16.36,10.77,7.99,37.64,18.61,24.00,324.83,324.50,344.00,11.00,589.43,589.19,385.00,13.00,145.50,145.00,272.00,10.00,591.49,591.25,385.00,11.00,33.30,33.00,107.00,10.00,0,휴식 (Relax)
344.00,616.00,135.00,572.00,31.00,15.59,28.25,11.89,40.00,43.92,151.27,50.51,24.00,15.29,11.63,26.01,39.66,61.95,128.70,39.29,187.00,12.60,23.66,4.73,42.20,6.69,63.33,21.77,145.00,24.70,19.82,51.12,77.78,2.67,152.72,25.33,66.00,1.47,7.69,16.36,10.77,7.99,37.64,18.61,24.00,325.86,325.50,368.00,12.00,590.84,590.56,440.00,14.00,145.78,145.31,279.00,11.00,591.49,591.25,385.00,11.00,33.30,33.00,107.00,9.00,0,휴식 (Relax)
320.00,561.00,162.00,616.00,36.00,16.98,14.23,26.23,46.65,42.02,135.96,53.76,48.00,32.12,42.73,34.06,22.00,71.47,118.94,21.08,220.00,16.53,27.39,5.09,36.40,10.64,67.38,20.78,151.00,21.61,27.72,55.94,70.43,8.70,161.54,26.16,77.00,1.47,7.69,16.36,10.77,7.99,37.64,18.61,24.00,324.33,324.00,344.00,12.00,588.82,588.50,473.00,14.00,146.19,145.69,285.00,11.00,592.20,591.94,407.00,11.00,33.30,33.00,109.00,10.00,0,휴식 (Relax)
304.00,594.00,125.00,561.00,28.00,15.11,10.49,20.82,40.00,35.70,128.07,54.11,56.00,24.49,27.83,15.92,0.00,60.64,101.77,35.74,242.00,14.97,29.40,13.13,40.31,12.91,68.01,26.09,161.00,25.05,32.43,34.35,88.68,25.61,166.57,43.50,99.00,6.05,9.00,11.36,15.52,10.49,40.80,17.44,19.00,324.80,324.50,312.00,11.00,590.18,589.88,484.00,14.00,145.64,145.06,306.00,11.00,590.87,590.56,451.00,11.00,33.01,32.69,115.00,12.00,0,휴식 (Relax)
336.00,594.00,151.00,594.00,31.00,14.00,17.64,17.84,35.78,28.72,121.63,52.51,64.00,24.49,27.83,15.92,0.00,60.64,101.77,35.74,242.00,14.97,29.40,13.13,40.31,12.91,68.01,26.09,161.00,25.05,32.43,34.35,88.68,25.61,166.57,43.50,99.00,6.05,9.00,11.36,15.52,10.49,40.80,17.44,19.00,324.27,324.00,328.00,12.00,590.18,589.88,473.00,14.00,145.64,145.06,321.00,11.00,590.87,590.56,473.00,12.00,33.01,32.69,110.00,11.00,0,휴식 (Relax)
320.00,583.00,151.00,627.00,39.00,14.30,25.12,10.16,28.84,28.39,122.93,56.91,56.00,16.91,13.16,6.60,22.00,72.50,117.74,14.91,220.00,8.72,19.57,20.36,46.75,23.85,78.93,15.12,150.00,35.89,18.24,19.13,108.34,46.42,187.73,23.40,77.00,6.05,9.00,11.36,15.52,10.49,40.80,17.44,19.00,323.77,323.50,328.00,12.00,588.80,588.50,451.00,14.00,146.32,145.75,316.00,11.00,592.30,591.94,473.00,11.00,33.01,32.69,107.00,11.00,0,휴식 (Relax)
312.00,583.00,140.00,551.00,26.00,14.30,25.12,10.16,28.84,28.39,122.93,56.91,56.00,21.61,23.16,8.23,24.60,68.17,119.27,11.90,209.00,12.06,21.16,16.32,50.61,25.83,82.91,10.45,145.00,17.96,20.35,40.13,118.43,61.26,206.18,20.86,56.00,6.75,7.07,13.23,15.13,11.34,42.80,15.71,21.00,323.77,323.50,312.00,11.00,589.47,589.19,396.00,13.00,146.02,145.44,312.00,12.00,591.05,590.62,538.00,12.00,32.91,32.56,115.00,11.00,0,휴식 (Relax)
328.00,605.00,130.00,583.00,39.00,12.90,24.01,15.21,35.78,22.77,115.10,64.84,48.00,10.58,10.53,15.51,11.00,46.24,108.38,29.96,187.00,12.06,21.16,16.32,50.61,25.83,82.91,10.45,145.00,17.96,20.35,40.13,118.43,61.26,206.18,20.86,56.00,8.53,11.19,14.19,9.22,9.01,47.04,9.83,27.00,323.26,323.00,312.00,11.00,588.03,587.81,352.00,13.00,146.02,145.44,284.00,11.00,591.05,590.62,526.00,11.00,33.32,32.94,125.00,12.00,0,휴식 (Relax)
304.00,561.00,162.00,616.00,31.00,17.70,17.38,30.17,32.00,20.34,128.82,49.59,64.00,10.58,10.53,15.51,11.00,46.24,108.38,29.96,187.00,18.03,15.94,22.31,46.01,20.15,79.52,10.17,139.00,6.96,13.45,33.22,112.77,50.37,201.41,31.29,45.00,4.84,11.36,9.19,11.40,4.45,47.53,4.92,32.00,322.29,322.00,328.00,11.00,588.03,587.81,352.00,13.00,145.59,145.06,278.00,11.00,590.33,589.94,515.00,11.00,33.00,32.62,128.00,12.00,0,휴식 (Relax)
352.00,616.00,140.00,583.00,36.00,23.65,38.56,35.83,56.00,14.11,137.35,35.86,88.00,18.58,1.44,22.99,15.56,40.10,118.46,20.55,198.00,10.17,25.84,20.15,53.26,22.31,69.79,18.03,129.00,6.96,13.45,33.22,112.77,50.37,201.41,31.29,45.00,9.33,7.48,12.13,15.65,2.69,44.74,3.27,37.00,323.87,323.50,368.00,12.00,588.74,588.50,385.00,13.00,146.17,145.69,274.00,11.00,590.33,589.94,526.00,11.00,33.32,32.94,128.00,12.00,0,휴식 (Relax)
328.00,594.00,151.00,616.00,39.00,16.44,31.65,28.02,56.57,11.53,134.90,37.04,96.00,29.53,12.35,32.88,24.60,51.07,114.71,27.63,187.00,12.39,23.06,15.60,56.59,27.30,65.55,23.02,124.00,16.79,23.99,37.30,107.94,44.80,211.48,22.43,56.00,12.32,4.50,11.39,17.20,0.40,47.66,2.51,34.00,323.36,323.00,368.00,11.00,589.43,589.19,396.00,12.00,145.84,145.38,264.00,11.00,591.04,590.62,526.00,11.00,33.53,33.12,123.00,11.00,0,휴식 (Relax)
312.00,605.00,130.00,561.00,31.00,16.44,31.65,28.02,56.57,11.53,134.90,37.04,96.00,40.14,21.77,34.87,22.00,48.71,110.05,24.66,198.00,14.49,24.93,12.16,60.31,26.01,66.76,18.37,129.00,10.73,20.28,44.87,118.11,33.81,215.83,20.69,67.00,15.08,2.76,8.53,14.87,2.67,45.15,4.07,37.00,323.36,323.00,368.00,11.00,590.13,589.88,396.00,11.00,145.56,145.06,269.00,11.00,590.38,589.94,570.00,12.00,33.69,33.31,128.00,12.00,0,휴식 (Relax)
328.00,583.00,156.00,605.00,31.00,16.44,31.65,28.02,56.57,11.53,134.90,37.04,96.00,40.14,21.77,34.87,22.00,48.71,110.05,24.66,198.00,14.33,20.22,10.40,63.66,30.36,64.49,15.37,134.00,22.51,18.12,26.98,127.77,33.50,209.19,36.65,89.00,15.08,2.76,8.53,14.87,2.67,45.15,4.07,37.00,323.36,323.00,384.00,12.00,590.13,589.88,407.00,11.00,145.89,145.38,289.00,11.00,591.76,591.31,581.00,12.00,33.69,33.31,117.00,11.00,0,휴식 (Relax)
328.00,594.00,151.00,616.00,36.00,16.44,31.65,28.02,56.57,11.53,134.90,37.04,96.00,40.14,21.77,34.87,22.00,48.71,110.05,24.66,198.00,18.14,14.89,4.83,68.12,26.08,70.16,17.18,128.00,22.51,18.12,26.98,127.77,33.50,209.19,36.65,89.00,13.75,3.37,8.18,11.18,8.00,42.08,2.02,31.00,323.36,323.00,360.00,11.00,590.13,589.88,407.00,11.00,146.27,145.75,289.00,11.00,591.76,591.31,548.00,11.00,33.26,32.94,108.00,11.00,0,휴식 (Relax)
328.00,594.00,145.00,583.00,28.00,35.43,17.69,41.10,58.24,12.47,130.26,15.10,72.00,43.33,12.35,37.11,33.00,52.87,114.71,15.56,187.00,22.90,14.61,2.96,65.00,24.27,65.73,17.48,133.00,27.81,10.24,37.97,122.54,39.68,198.57,47.36,100.00,13.75,3.37,8.18,11.18,8.00,42.08,2.02,31.00,324.82,324.50,320.00,10.00,590.81,590.56,385.00,10.00,146.57,146.06,295.00,12.00,592.43,592.00,570.00,12.00,33.26,32.94,105.00,11.00,0,휴식 (Relax)
328.00,616.00,135.00,594.00,36.00,26.87,15.01,27.65,73.76,23.84,118.25,15.78,56.00,44.97,1.44,48.10,34.79,41.93,118.46,26.10,198.00,17.94,11.13,2.04,69.07,19.32,64.50,20.71,138.00,32.74,3.39,43.11,112.77,45.65,204.21,38.75,89.00,15.98,4.08,5.68,12.81,6.98,39.44,4.85,28.00,323.78,323.50,280.00,9.00,591.52,591.25,363.00,9.00,146.28,145.75,277.00,11.00,593.12,592.69,559.00,12.00,33.05,32.75,100.00,11.00,0,휴식 (Relax)
304.00,572.00,151.00,594.00,31.00,26.87,15.01,27.65,73.76,23.84,118.25,15.78,56.00,45.00,10.53,53.57,24.60,46.14,108.38,15.37,187.00,9.34,6.29,17.80,61.10,31.62,57.08,8.00,121.00,32.08,12.72,49.96,107.94,56.29,202.05,35.70,78.00,11.25,6.95,6.26,9.43,2.45,38.39,9.40,23.00,323.78,323.50,264.00,9.00,592.18,591.94,352.00,9.00,145.11,144.69,260.00,11.00,592.42,592.00,526.00,11.00,33.31,33.06,100.00,12.00,0,휴식 (Relax)
328.00,605.00,135.00,572.00,28.00,36.85,5.60,43.62,58.24,9.59,107.78,31.61,40.00,49.07,6.97,60.19,31.11,40.22,98.14,9.76,176.00,9.34,6.29,17.80,61.10,31.62,57.08,8.00,121.00,32.08,12.72,49.96,107.94,56.29,202.05,35.70,78.00,14.25,4.02,8.41,7.07,1.25,40.25,11.86,20.00,322.74,322.50,264.00,9.00,591.47,591.25,330.00,9.00,145.11,144.69,249.00,11.00,592.42,592.00,504.00,11.00,33.15,32.88,98.00,11.00,0,휴식 (Relax)
328.00,583.00,162.00,616.00,36.00,29.36,11.53,40.88,60.93,3.90,109.08,39.34,32.00,35.07,15.78,40.00,49.19,18.32,91.99,26.57,154.00,9.34,6.29,17.80,61.10,31.62,57.08,8.00,121.00,32.08,12.72,49.96,107.94,56.29,202.05,35.70,78.00,14.25,4.02,8.41,7.07,1.25,40.25,11.86,20.00,323.25,323.00,248.00,9.00,592.80,592.62,319.00,9.00,145.11,144.69,239.00,11.00,592.42,592.00,493.00,11.00,33.15,32.88,98.00,11.00,0,휴식 (Relax)
312.00,583.00,135.00,583.00,31.00,21.36,19.27,47.48,53.67,5.27,102.51,33.19,40.00,43.99,13.02,40.26,45.35,18.88,98.75,37.57,143.00,2.23,15.84,27.00,51.89,27.00,53.36,2.23,111.00,12.53,30.54,70.64,88.19,40.53,190.22,55.81,56.00,12.31,4.27,9.33,5.39,3.10,38.00,11.48,23.00,323.72,323.50,232.00,9.00,592.12,591.94,319.00,9.00,145.67,145.31,240.00,11.00,593.75,593.38,493.00,11.00,33.31,33.06,100.00,12.00,0,휴식 (Relax)
336.00,594.00,156.00,594.00,31.00,21.36,19.27,47.48,53.67,5.27,102.51,33.19,40.00,43.99,13.02,40.26,45.35,18.88,98.75,37.57,143.00,5.51,20.17,27.81,54.20,23.45,51.20,3.80,116.00,12.53,30.54,70.64,88.19,40.53,190.22,55.81,56.00,12.31,4.27,9.33,5.39,3.10,38.00,11.48,23.00,323.72,323.50,240.00,9.00,592.12,591.94,319.00,9.00,146.00,145.62,261.00,12.00,593.75,593.38,471.00,12.00,33.31,33.06,92.00,11.00,0,휴식 (Relax)
328.00,605.00,151.00,627.00,39.00,16.56,19.39,46.27,60.93,3.57,98.02,34.00,48.00,23.20,9.31,59.52,45.35,22.11,83.26,27.48,165.00,5.51,20.17,27.81,54.20,23.45,51.20,3.80,116.00,12.53,30.54,70.64,88.19,40.53,190.22,55.81,56.00,12.31,4.27,9.33,5.39,3.10,38.00,11.48,23.00,324.22,324.00,240.00,9.00,593.50,593.31,330.00,9.00,146.00,145.62,255.00,11.00,593.75,593.38,428.00,11.00,33.31,33.06,87.00,11.00,0,휴식 (Relax)
328.00,594.00,140.00,572.00,28.00,22.20,17.35,31.54,68.82,16.89,95.77,28.05,32.00,18.01,19.46,60.37,56.09,12.01,82.95,26.96,154.00,5.51,20.17,27.81,54.20,23.45,51.20,3.80,116.00,10.54,29.17,49.79,80.08,41.15,170.04,44.81,77.00,13.49,2.47,7.92,7.28,5.10,36.00,9.66,21.00,325.21,325.00,224.00,8.00,594.18,594.00,319.00,6.00,146.00,145.62,256.00,12.00,594.99,594.69,451.00,10.00,33.42,33.19,85.00,11.00,0,휴식 (Relax)
328.00,605.00,135.00,594.00,39.00,22.20,17.35,31.54,68.82,16.89,95.77,28.05,32.00,18.01,19.46,60.37,56.09,12.01,82.95,26.96,154.00,7.35,15.52,28.94,49.93,19.11,53.27,3.39,111.00,21.52,25.91,48.29,69.57,30.23,175.47,45.81,66.00,13.49,2.47,7.92,7.28,5.10,36.00,9.66,21.00,325.21,325.00,200.00,7.00,594.18,594.00,286.00,5.00,146.29,145.94,229.00,11.00,595.67,595.38,440.00,9.00,33.42,33.19,88.00,11.00,0,휴식 (Relax)
304.00,572.00,156.00,616.00,36.00,22.20,17.35,31.54,68.82,16.89,95.77,28.05,32.00,25.54,19.68,51.79,45.35,22.87,71.96,22.34,143.00,7.83,21.25,22.96,46.96,14.55,51.72,9.15,105.00,21.52,25.91,48.29,69.57,30.23,175.47,45.81,66.00,18.48,6.73,8.99,2.83,3.92,36.15,5.14,16.00,325.21,325.00,176.00,7.00,594.83,594.69,264.00,11.00,145.88,145.56,228.00,11.00,595.67,595.38,429.00,9.00,33.73,33.50,86.00,10.00,0,휴식 (Relax)
336.00,616.00,125.00,572.00,33.00,8.89,32.50,15.69,56.57,3.12,85.98,13.30,16.00,25.54,19.68,51.79,45.35,22.87,71.96,22.34,143.00,21.59,31.60,20.65,34.21,15.82,64.79,6.41,120.00,15.41,36.87,41.03,59.24,25.22,184.97,52.60,77.00,15.66,4.29,6.02,2.24,2.73,38.52,4.36,13.00,324.15,324.00,184.00,8.00,594.83,594.69,286.00,11.00,145.02,144.62,248.00,11.00,595.00,594.69,440.00,9.00,33.53,33.31,86.00,10.00,0,휴식 (Relax)
320.00,594.00,151.00,605.00,33.00,10.74,37.31,13.07,51.22,5.68,84.76,21.21,24.00,25.54,19.68,51.79,45.35,22.87,71.96,22.34,143.00,21.59,31.60,20.65,34.21,15.82,64.79,6.41,120.00,19.62,44.84,47.75,64.14,36.18,174.40,42.83,66.00,12.14,7.45,7.46,4.12,8.54,32.60,5.66,19.00,323.65,323.50,184.00,8.00,594.83,594.69,297.00,11.00,145.02,144.62,253.00,11.00,594.29,594.00,418.00,7.00,33.13,32.94,78.00,9.00,0,휴식 (Relax)
304.00,583.00,135.00,572.00,31.00,18.04,37.74,20.57,57.69,9.42,91.12,13.66,16.00,12.98,40.48,46.88,55.00,6.23,88.31,3.86,121.00,17.52,34.74,18.38,30.41,20.75,62.76,2.95,115.00,11.34,44.94,37.64,55.00,42.28,169.45,31.98,55.00,12.14,7.45,7.46,4.12,8.54,32.60,5.66,19.00,323.17,323.00,184.00,7.00,593.46,593.31,286.00,8.00,145.31,144.94,243.00,11.00,594.95,594.69,407.00,9.00,33.13,32.94,80.00,9.00,0,휴식 (Relax)
328.00,594.00,151.00,594.00,28.00,18.04,37.74,20.57,57.69,9.42,91.12,13.66,16.00,13.42,35.89,36.96,46.67,16.93,99.22,10.17,110.00,20.31,29.75,15.09,27.20,22.48,64.89,6.16,110.00,21.32,36.82,38.49,49.19,38.49,173.51,21.32,44.00,13.46,9.50,8.36,1.41,7.15,33.25,6.46,22.00,323.17,323.00,208.00,8.00,594.14,594.00,286.00,5.00,144.98,144.62,254.00,12.00,594.25,594.00,418.00,7.00,32.96,32.75,78.00,8.00,0,휴식 (Relax)
320.00,572.00,156.00,616.00,36.00,25.44,29.88,18.10,51.22,11.47,96.02,13.19,8.00,24.91,32.07,55.89,34.79,33.91,114.05,30.24,88.00,19.40,33.64,20.02,31.38,19.56,69.67,11.14,105.00,21.32,36.82,38.49,49.19,38.49,173.51,21.32,44.00,13.46,9.50,8.36,1.41,7.15,33.25,6.46,22.00,322.67,322.50,216.00,9.00,592.79,592.62,308.00,9.00,145.31,144.94,253.00,12.00,594.25,594.00,407.00,6.00,32.96,32.75,78.00,8.00,0,휴식 (Relax)
320.00,583.00,145.00,572.00,26.00,31.90,23.60,10.65,46.65,17.10,97.09,10.60,16.00,35.80,27.14,56.62,24.60,36.18,114.27,22.26,99.00,19.40,33.64,20.02,31.38,19.56,69.67,11.14,105.00,31.50,29.59,29.79,55.00,33.90,183.66,18.97,33.00,15.41,8.36,6.48,3.16,6.47,35.19,6.21,24.00,322.17,322.00,216.00,9.00,592.11,591.94,297.00,9.00,145.31,144.94,254.00,11.00,593.59,593.31,440.00,11.00,32.86,32.62,80.00,8.00,0,휴식 (Relax)
336.00,605.00,135.00,594.00,36.00,27.97,25.05,17.59,40.00,24.22,103.75,10.65,24.00,46.49,18.23,47.64,31.11,25.19,106.23,27.26,88.00,19.40,33.64,20.02,31.38,19.56,69.67,11.14,105.00,31.50,29.59,29.79,55.00,33.90,183.66,18.97,33.00,15.41,8.36,6.48,3.16,6.47,35.19,6.21,24.00,322.68,322.50,208.00,9.00,591.40,591.25,275.00,9.00,145.31,144.94,248.00,11.00,593.59,593.31,462.00,12.00,32.86,32.62,85.00,8.00,0,휴식 (Relax)
312.00,572.00,168.00,616.00,31.00,29.09,22.79,19.32,35.78,25.51,95.96,13.32,16.00,46.49,18.23,47.64,31.11,25.19,106.23,27.26,88.00,35.49,17.06,10.40,42.64,12.00,79.20,15.77,122.00,29.16,16.55,7.80,70.43,17.97,192.97,14.76,55.00,15.41,8.36,6.48,3.16,6.47,35.19,6.21,24.00,323.16,323.00,208.00,9.00,591.40,591.25,275.00,9.00,146.47,146.00,265.00,11.00,594.99,594.69,462.00,11.00,32.86,32.62,87.00,9.00,0,휴식 (Relax)
336.00,594.00,135.00,572.00,33.00,34.64,17.22,15.05,43.08,17.54,100.36,7.62,24.00,53.29,13.02,50.02,24.60,33.59,98.75,28.10,77.00,35.49,17.06,10.40,42.64,12.00,79.20,15.77,122.00,29.16,16.55,7.80,70.43,17.97,192.97,14.76,55.00,13.30,10.84,4.62,5.00,7.41,30.99,2.64,29.00,323.67,323.50,232.00,10.00,590.70,590.56,275.00,9.00,146.47,146.00,271.00,11.00,594.99,594.69,462.00,11.00,33.15,32.94,81.00,8.00,0,휴식 (Relax)
320.00,594.00,151.00,605.00,33.00,27.18,25.14,23.04,40.79,15.40,99.32,5.41,32.00,50.50,10.93,39.05,34.79,43.17,100.22,28.95,66.00,26.70,22.96,8.11,51.62,21.76,71.04,4.93,111.00,20.33,27.47,8.42,79.32,8.42,183.33,20.33,44.00,13.28,11.40,1.96,7.21,6.12,28.04,2.54,32.00,323.17,323.00,232.00,10.00,591.38,591.25,275.00,9.00,145.73,145.31,260.00,11.00,594.28,594.00,462.00,7.00,32.95,32.75,76.00,7.00,0,휴식 (Relax)
320.00,583.00,140.00,594.00,31.00,35.18,19.51,21.09,32.98,22.94,93.31,9.77,40.00,50.50,10.93,39.05,34.79,43.17,100.22,28.95,66.00,29.09,23.50,3.13,49.19,22.55,71.22,3.42,106.00,30.78,22.18,16.21,73.79,16.21,180.73,30.78,33.00,13.28,11.40,1.96,7.21,6.12,28.04,2.54,32.00,323.66,323.50,208.00,9.00,591.38,591.25,275.00,9.00,146.03,145.62,250.00,11.00,594.96,594.69,462.00,12.00,32.95,32.75,78.00,7.00,0,휴식 (Relax)
328.00,583.00,145.00,572.00,26.00,27.88,20.02,14.36,35.78,28.60,85.32,15.71,48.00,44.88,21.69,33.04,45.35,53.67,89.44,35.69,77.00,29.17,15.43,12.09,39.66,15.44,79.85,13.59,95.00,9.47,22.72,13.82,55.00,36.09,193.59,52.66,11.00,10.86,16.22,5.41,4.12,5.51,29.37,5.15,37.00,323.15,323.00,208.00,10.00,590.70,590.56,264.00,9.00,145.32,144.94,250.00,12.00,593.61,593.31,451.00,11.00,32.68,32.44,75.00,6.00,0,휴식 (Relax)
336.00,572.00,151.00,594.00,36.00,33.60,24.97,21.79,43.08,27.42,80.10,21.45,56.00,30.42,52.06,1.67,49.19,42.33,110.88,13.58,44.00,29.17,15.43,12.09,39.66,15.44,79.85,13.59,95.00,27.70,35.09,46.22,44.00,46.22,160.85,27.70,44.00,9.20,18.01,7.79,1.41,2.52,26.68,4.03,34.00,323.66,323.50,216.00,10.00,588.64,588.50,264.00,9.00,145.32,144.94,245.00,11.00,591.49,591.25,418.00,11.00,32.47,32.25,74.00,6.00,0,휴식 (Relax)
304.00,572.00,151.00,583.00,26.00,30.72,1.05,30.95,40.79,10.48,86.16,39.65,80.00,29.95,66.05,23.56,31.11,23.56,112.15,29.95,66.00,20.93,25.27,22.29,31.11,21.68,73.96,7.70,106.00,16.86,35.63,44.35,33.00,56.85,152.23,28.43,55.00,7.82,17.96,7.78,3.16,3.93,28.59,3.86,36.00,322.19,322.00,248.00,11.00,587.28,587.12,253.00,9.00,146.00,145.62,240.00,11.00,592.16,591.94,407.00,11.00,32.36,32.12,73.00,6.00,0,휴식 (Relax)
336.00,594.00,140.00,583.00,33.00,26.57,8.46,23.79,32.98,3.44,93.60,45.21,88.00,31.50,67.40,29.79,24.60,33.90,103.46,18.97,55.00,16.69,27.73,25.70,27.80,23.84,72.72,7.53,101.00,26.63,27.11,34.73,34.79,59.59,151.59,36.19,66.00,3.86,14.53,3.93,7.62,7.78,26.25,7.82,30.00,322.71,322.50,256.00,11.00,586.58,586.44,242.00,9.00,146.30,145.94,230.00,11.00,591.47,591.25,385.00,11.00,31.94,31.75,77.00,7.00,0,휴식 (Relax)
320.00,583.00,156.00,616.00,36.00,18.55,22.26,30.46,40.00,19.34,79.30,41.01,72.00,34.14,74.01,35.66,15.56,36.72,92.51,9.27,44.00,16.69,27.73,25.70,27.80,23.84,72.72,7.53,101.00,26.63,27.11,34.73,34.79,59.59,151.59,36.19,66.00,3.86,14.53,3.93,7.62,7.78,26.25,7.82,30.00,323.67,323.50,240.00,11.00,587.25,587.12,209.00,9.00,146.30,145.94,215.00,11.00,591.47,591.25,374.00,11.00,31.94,31.75,77.00,7.00,0,휴식 (Relax)
328.00,572.00,140.00,572.00,28.00,23.85,19.85,22.93,33.94,23.29,77.50,44.13,64.00,30.91,30.36,14.73,56.09,32.16,73.28,40.80,0.00,2.93,17.47,10.72,38.83,31.05,58.16,13.29,86.00,26.63,27.11,34.73,34.79,59.59,151.59,36.19,66.00,2.69,10.25,4.31,3.61,8.06,31.06,12.70,25.00,323.16,323.00,232.00,11.00,584.46,584.38,198.00,9.00,147.14,146.88,205.00,11.00,591.47,591.25,385.00,11.00,31.64,31.44,85.00,8.00,0,휴식 (Relax)
328.00,605.00,140.00,594.00,31.00,16.45,16.18,24.26,28.84,20.65,82.33,50.54,56.00,29.65,39.97,5.84,59.24,27.84,79.93,51.65,11.00,11.78,28.14,18.60,45.97,28.08,53.61,21.80,75.00,29.03,29.05,45.59,45.35,60.04,143.85,27.09,55.00,3.81,10.20,6.24,5.39,9.60,29.36,11.06,27.00,323.66,323.50,216.00,11.00,585.17,585.06,220.00,9.00,146.46,146.19,189.00,10.00,590.78,590.56,374.00,11.00,31.51,31.31,86.00,8.00,0,휴식 (Relax)
320.00,572.00,151.00,605.00,36.00,1.38,8.23,16.25,17.89,36.40,66.42,35.00,72.00,26.65,37.65,8.65,49.19,17.08,90.90,61.35,22.00,9.63,17.36,26.20,36.67,13.68,62.26,34.14,59.00,43.58,13.43,40.46,49.19,35.59,148.61,31.70,22.00,4.83,7.21,7.29,5.83,14.10,28.71,9.63,32.00,324.62,324.50,200.00,11.00,584.49,584.38,242.00,9.00,147.44,147.19,184.00,10.00,592.83,592.62,363.00,10.00,31.85,31.62,88.00,9.00,0,휴식 (Relax)
328.00,605.00,140.00,583.00,28.00,1.38,8.23,16.25,17.89,36.40,66.42,35.00,72.00,33.15,31.56,15.05,45.35,13.47,99.47,69.17,33.00,4.58,17.08,16.63,27.20,6.81,73.21,41.76,48.00,33.39,19.61,29.63,39.66,24.82,158.19,41.80,11.00,4.83,7.21,7.29,5.83,14.10,28.71,9.63,32.00,324.62,324.50,200.00,11.00,585.19,585.06,253.00,9.00,146.76,146.50,190.00,11.00,592.14,591.94,363.00,11.00,31.85,31.62,88.00,9.00,0,휴식 (Relax)
328.00,583.00,151.00,605.00,42.00,6.81,1.94,13.04,22.63,32.17,65.94,28.22,80.00,43.48,21.49,25.01,34.79,4.97,98.50,65.08,22.00,7.17,15.40,18.58,24.60,3.53,69.46,39.74,53.00,22.41,30.59,25.17,46.67,28.61,147.69,30.82,22.00,10.83,2.79,10.39,5.83,8.95,34.70,14.38,38.00,325.12,325.00,200.00,11.00,585.87,585.75,264.00,10.00,146.43,146.19,190.00,11.00,591.44,591.25,341.00,11.00,32.30,32.00,92.00,9.00,0,휴식 (Relax)
304.00,583.00,140.00,583.00,26.00,10.49,17.43,8.22,35.78,16.23,78.08,24.15,96.00,43.48,21.49,25.01,34.79,4.97,98.50,65.08,22.00,10.49,11.59,23.54,29.15,8.51,69.84,39.89,48.00,33.05,24.54,17.40,39.66,23.77,143.01,21.45,33.00,10.83,2.79,10.39,5.83,8.95,34.70,14.38,38.00,324.16,324.00,208.00,11.00,585.87,585.75,242.00,9.00,146.12,145.88,191.00,12.00,592.11,591.94,341.00,11.00,32.30,32.00,98.00,9.00,0,휴식 (Relax)
344.00,605.00,140.00,594.00,36.00,2.60,12.47,14.17,32.98,16.07,86.00,28.54,104.00,43.48,21.49,25.01,34.79,4.97,98.50,65.08,22.00,9.05,16.59,22.65,27.66,11.59,66.83,38.71,43.00,33.05,24.54,17.40,39.66,23.77,143.01,21.45,33.00,10.83,2.79,10.39,5.83,8.95,34.70,14.38,38.00,324.68,324.50,224.00,11.00,585.87,585.75,231.00,9.00,146.42,146.19,158.00,11.00,592.11,591.94,330.00,12.00,32.30,32.00,103.00,9.00,0,휴식 (Relax)
312.00,583.00,151.00,616.00,39.00,2.60,12.47,14.17,32.98,16.07,86.00,28.54,104.00,51.24,26.69,18.30,33.00,8.55,90.78,57.08,33.00,16.22,12.32,10.65,11.66,17.20,50.16,32.86,26.00,33.05,24.54,17.40,39.66,23.77,143.01,21.45,33.00,15.75,10.49,10.18,13.34,2.70,40.57,9.43,30.00,324.68,324.50,232.00,11.00,586.55,586.44,231.00,9.00,145.26,145.12,136.00,11.00,592.11,591.94,308.00,11.00,32.84,32.50,104.00,9.00,0,휴식 (Relax)
320.00,594.00,135.00,572.00,33.00,17.28,7.04,24.04,32.98,15.60,89.52,12.66,88.00,51.24,26.69,18.30,33.00,8.55,90.78,57.08,33.00,16.22,12.32,10.65,11.66,17.20,50.16,32.86,26.00,33.05,24.54,17.40,39.66,23.77,143.01,21.45,33.00,15.75,10.49,10.18,13.34,2.70,40.57,9.43,30.00,323.67,323.50,224.00,10.00,586.55,586.44,242.00,10.00,145.26,145.12,136.00,11.00,592.11,591.94,319.00,11.00,32.84,32.50,110.00,9.00,0,휴식 (Relax)
328.00,616.00,145.00,605.00,33.00,11.13,10.95,17.85,25.30,23.56,96.71,5.10,80.00,57.30,45.89,39.69,39.66,14.21,108.11,35.10,55.00,18.56,17.99,9.54,17.09,11.24,49.16,28.39,20.00,33.05,24.54,17.40,39.66,23.77,143.01,21.45,33.00,15.75,10.49,10.18,13.34,2.70,40.57,9.43,30.00,324.17,324.00,232.00,11.00,587.97,587.81,253.00,9.00,144.87,144.75,135.00,11.00,592.11,591.94,341.00,12.00,32.84,32.50,108.00,9.00,0,휴식 (Relax)
320.00,572.00,151.00,605.00,33.00,11.13,10.95,17.85,25.30,23.56,96.71,5.10,80.00,57.51,42.73,38.66,31.11,19.57,118.94,24.98,66.00,19.99,15.84,3.16,16.76,10.99,56.70,18.80,9.00,28.29,22.86,18.79,49.19,24.80,147.45,12.95,22.00,15.30,8.98,8.91,13.04,2.28,40.83,8.09,32.00,324.17,324.00,232.00,11.00,587.29,587.12,297.00,10.00,145.56,145.44,136.00,11.00,592.80,592.62,319.00,11.00,32.96,32.62,103.00,9.00,0,휴식 (Relax)
328.00,605.00,140.00,594.00,28.00,11.13,10.95,17.85,25.30,23.56,96.71,5.10,80.00,50.61,34.99,19.44,22.00,23.05,132.86,20.05,88.00,16.75,12.22,7.21,12.08,15.97,61.70,14.01,4.00,22.58,18.88,16.51,62.23,3.28,126.88,33.80,44.00,14.33,6.98,6.96,15.03,4.09,39.23,9.87,30.00,324.17,324.00,232.00,12.00,588.68,588.50,319.00,11.00,145.26,145.12,141.00,11.00,594.15,594.00,308.00,7.00,33.06,32.75,98.00,9.00,0,휴식 (Relax)
320.00,583.00,145.00,594.00,42.00,14.39,20.18,19.35,33.94,11.74,92.48,17.46,64.00,46.24,27.59,10.58,11.00,29.96,133.69,15.51,77.00,12.19,6.29,12.18,15.56,15.19,57.80,20.01,10.00,22.58,18.88,16.51,62.23,3.28,126.88,33.80,44.00,10.67,5.07,8.63,16.55,4.53,45.19,3.88,36.00,323.16,323.00,208.00,12.00,589.35,589.19,341.00,12.00,144.87,144.75,146.00,12.00,594.15,594.00,297.00,7.00,33.50,33.12,102.00,8.00,0,휴식 (Relax)
304.00,583.00,140.00,572.00,26.00,14.39,20.18,19.35,33.94,11.74,92.48,17.46,64.00,40.10,16.90,18.58,15.56,20.55,125.25,22.99,88.00,5.45,6.65,16.04,24.60,5.96,57.57,11.03,1.00,30.12,29.35,27.39,70.43,10.85,131.49,25.40,33.00,10.67,5.07,8.63,16.55,4.53,45.19,3.88,36.00,323.16,323.00,192.00,11.00,590.03,589.88,319.00,11.00,144.18,144.06,140.00,12.00,593.48,593.31,319.00,10.00,33.50,33.12,111.00,9.00,0,휴식 (Relax)
344.00,605.00,140.00,594.00,36.00,16.16,17.22,18.95,40.00,4.98,100.36,11.08,72.00,32.44,8.75,28.11,24.60,20.49,136.23,12.56,77.00,5.45,6.65,16.04,24.60,5.96,57.57,11.03,1.00,19.78,20.67,26.60,77.78,16.14,128.50,24.01,22.00,7.91,8.02,9.53,15.52,5.34,44.96,2.46,39.00,323.69,323.50,216.00,11.00,590.73,590.56,330.00,11.00,144.18,144.06,124.00,11.00,594.17,594.00,308.00,6.00,33.69,33.31,118.00,10.00,0,휴식 (Relax)
312.00,583.00,156.00,616.00,36.00,11.31,14.19,11.31,35.78,11.31,105.18,11.31,80.00,32.44,8.75,28.11,24.60,20.49,136.23,12.56,77.00,5.45,6.65,16.04,24.60,5.96,57.57,11.03,1.00,19.78,20.67,26.60,77.78,16.14,128.50,24.01,22.00,7.91,8.02,9.53,15.52,5.34,44.96,2.46,39.00,323.20,323.00,240.00,11.00,590.73,590.56,341.00,12.00,144.18,144.06,124.00,11.00,594.17,594.00,286.00,5.00,33.69,33.31,110.00,9.00,0,휴식 (Relax)
320.00,572.00,135.00,561.00,26.00,8.00,9.19,8.00,43.08,8.00,106.34,8.00,72.00,32.44,8.75,28.11,24.60,20.49,136.23,12.56,77.00,2.17,7.27,15.24,27.20,3.24,61.44,9.83,4.00,30.35,14.77,21.77,85.91,27.13,139.23,16.99,33.00,9.82,8.53,11.45,15.13,7.31,46.96,1.76,37.00,322.69,322.50,248.00,11.00,590.73,590.56,319.00,11.00,143.88,143.75,145.00,12.00,593.51,593.31,319.00,9.00,33.59,33.19,117.00,10.00,0,휴식 (Relax)
336.00,594.00,151.00,594.00,31.00,13.30,16.82,3.12,40.79,15.69,113.02,8.89,64.00,43.15,3.77,36.58,22.00,24.45,128.23,8.58,66.00,12.00,14.89,6.59,19.42,8.10,63.78,11.61,15.00,30.35,14.77,21.77,85.91,27.13,139.23,16.99,33.00,9.82,8.53,11.45,15.13,7.31,46.96,1.76,37.00,323.21,323.00,256.00,11.00,590.03,589.88,308.00,11.00,144.58,144.44,150.00,12.00,593.51,593.31,341.00,10.00,33.59,33.19,117.00,9.00,0,휴식 (Relax)
320.00,583.00,151.00,627.00,39.00,13.30,16.82,3.12,40.79,15.69,113.02,8.89,64.00,34.55,7.23,40.21,33.00,35.30,117.23,17.31,55.00,12.00,14.89,6.59,19.42,8.10,63.78,11.61,15.00,26.38,36.44,11.85,103.77,45.14,145.53,38.50,11.00,8.71,5.83,14.13,15.03,9.90,47.18,4.29,40.00,323.21,323.00,264.00,11.00,590.70,590.56,286.00,11.00,144.58,144.44,139.00,11.00,594.93,594.69,352.00,9.00,33.80,33.38,117.00,9.00,0,휴식 (Relax)
328.00,583.00,135.00,561.00,28.00,13.30,16.82,3.12,40.79,15.69,113.02,8.89,64.00,47.81,17.65,18.34,39.66,46.10,102.85,39.30,33.00,8.44,13.31,9.38,17.09,12.49,68.58,13.15,10.00,22.54,28.45,10.28,93.98,63.31,165.84,60.05,11.00,8.71,5.83,14.13,15.03,9.90,47.18,4.29,40.00,323.21,323.00,272.00,12.00,589.32,589.19,264.00,10.00,144.28,144.12,144.00,11.00,593.61,593.31,396.00,9.00,33.80,33.38,114.00,9.00,0,휴식 (Relax)
328.00,594.00,145.00,583.00,36.00,13.30,16.82,3.12,40.79,15.69,113.02,8.89,64.00,44.11,9.50,23.42,31.11,42.58,105.08,49.69,22.00,9.27,17.57,9.27,22.80,9.27,63.40,9.27,16.00,30.05,46.41,26.71,114.84,69.06,146.01,42.92,11.00,7.50,5.75,17.26,16.55,13.19,41.22,2.84,34.00,323.21,323.00,248.00,11.00,590.00,589.88,275.00,11.00,143.89,143.75,143.00,11.00,592.23,591.94,396.00,8.00,33.37,33.00,106.00,8.00,0,휴식 (Relax)
304.00,572.00,151.00,605.00,31.00,13.30,16.82,3.12,40.79,15.69,113.02,8.89,64.00,43.67,12.35,30.09,24.60,31.84,114.71,58.60,11.00,7.17,6.81,19.04,22.56,19.04,61.80,7.17,27.00,30.87,26.50,34.37,110.55,91.05,140.95,40.93,33.00,9.84,8.51,12.59,12.21,17.91,38.34,7.74,29.00,323.21,323.00,232.00,11.00,589.33,589.19,275.00,11.00,144.59,144.44,149.00,11.00,593.61,593.31,407.00,8.00,33.63,33.31,101.00,9.00,0,휴식 (Relax)
344.00,594.00,140.00,572.00,33.00,13.30,16.82,3.12,40.79,15.69,113.02,8.89,64.00,41.69,16.16,40.40,15.56,39.44,104.26,53.08,22.00,7.17,6.81,19.04,22.56,19.04,61.80,7.17,27.00,21.58,37.56,14.68,88.68,101.12,154.92,55.95,55.00,7.26,5.52,12.82,10.77,18.47,39.11,10.66,26.00,323.21,323.00,240.00,11.00,588.63,588.50,275.00,11.00,144.59,144.44,149.00,11.00,592.26,591.94,418.00,9.00,33.44,33.12,100.00,9.00,0,휴식 (Relax)
320.00,594.00,145.00,605.00,33.00,14.12,16.95,6.78,43.08,22.78,108.96,1.88,56.00,47.48,20.29,40.92,11.00,37.59,99.97,53.73,33.00,10.25,7.40,22.38,24.60,22.38,55.81,10.25,21.00,20.09,39.36,21.04,88.00,107.74,143.93,45.44,44.00,2.00,5.01,8.51,5.66,23.50,33.92,6.59,32.00,323.70,323.50,256.00,12.00,589.32,589.19,264.00,10.00,144.20,144.06,138.00,11.00,591.55,591.25,407.00,9.00,33.03,32.75,94.00,9.00,0,휴식 (Relax)
312.00,561.00,145.00,583.00,31.00,16.23,10.83,10.49,50.60,24.15,111.47,8.22,48.00,25.06,13.16,11.05,44.00,13.63,117.74,76.42,66.00,3.65,13.90,13.24,16.28,32.04,48.75,19.92,11.00,25.25,45.51,12.20,77.00,118.31,136.01,34.47,33.00,1.23,6.97,6.56,7.21,21.97,35.88,6.99,30.00,323.21,323.00,256.00,11.00,587.29,587.12,275.00,11.00,144.81,144.69,128.00,10.00,592.22,591.94,396.00,9.00,32.91,32.62,96.00,9.00,0,휴식 (Relax)
328.00,605.00,140.00,594.00,26.00,16.23,10.83,10.49,50.60,24.15,111.47,8.22,48.00,19.59,21.29,3.25,45.35,24.45,106.79,65.81,55.00,6.96,9.13,13.40,13.42,33.28,49.36,24.83,6.00,16.34,34.57,12.10,77.78,120.18,136.56,25.14,22.00,7.01,13.33,8.86,12.53,20.73,32.56,10.14,37.00,323.21,323.00,264.00,11.00,586.58,586.44,275.00,11.00,144.50,144.38,127.00,11.00,591.52,591.25,407.00,10.00,32.52,32.19,101.00,9.00,0,휴식 (Relax)
336.00,572.00,162.00,616.00,36.00,4.34,25.45,19.84,65.97,39.19,96.63,10.00,64.00,19.59,21.29,3.25,45.35,24.45,106.79,65.81,55.00,4.22,16.85,23.27,23.77,26.01,58.70,34.64,5.00,26.79,43.73,21.03,88.68,111.33,145.18,21.96,11.00,4.76,12.23,6.14,14.21,17.98,33.80,12.98,40.00,324.22,324.00,264.00,10.00,586.58,586.44,275.00,11.00,145.24,145.06,138.00,7.00,592.23,591.94,418.00,10.00,32.72,32.38,106.00,9.00,0,휴식 (Relax)
312.00,594.00,135.00,572.00,28.00,17.81,22.31,11.58,64.00,44.10,91.99,25.99,80.00,11.22,18.23,13.23,44.00,19.80,106.23,56.38,44.00,2.91,16.27,20.28,25.50,21.11,63.52,38.35,10.00,5.97,43.33,15.37,88.68,92.79,167.00,35.80,11.00,4.76,12.23,6.14,14.21,17.98,33.80,12.98,40.00,323.23,323.00,280.00,10.00,585.87,585.75,275.00,11.00,144.95,144.75,160.00,11.00,590.88,590.56,462.00,11.00,32.72,32.38,100.00,9.00,0,휴식 (Relax)
328.00,594.00,140.00,594.00,36.00,9.99,16.57,5.25,56.00,39.52,96.57,33.57,88.00,21.26,27.14,15.47,33.00,9.26,114.27,51.10,33.00,7.57,20.23,23.58,30.08,22.50,61.16,36.28,5.00,5.97,43.33,15.37,88.68,92.79,167.00,35.80,11.00,7.16,6.63,1.56,18.60,16.92,28.57,8.24,34.00,323.73,323.50,280.00,11.00,586.56,586.44,275.00,11.00,144.64,144.44,160.00,10.00,590.88,590.56,462.00,11.00,32.27,32.00,92.00,9.00,0,휴식 (Relax)
296.00,572.00,145.00,605.00,28.00,16.98,24.51,13.22,56.57,31.61,104.49,40.12,96.00,10.36,16.90,5.06,34.79,7.58,125.25,52.09,22.00,2.78,15.36,19.11,32.25,19.28,62.96,36.76,0.00,33.94,13.69,31.08,98.39,60.41,174.08,6.38,22.00,6.53,8.57,3.48,17.49,15.09,28.19,7.84,32.00,323.27,323.00,272.00,11.00,585.89,585.75,275.00,11.00,144.95,144.75,165.00,11.00,592.93,592.62,451.00,10.00,32.37,32.12,90.00,9.00,0,휴식 (Relax)
344.00,605.00,145.00,594.00,31.00,16.98,24.51,13.22,56.57,31.61,104.49,40.12,96.00,10.36,16.90,5.06,34.79,7.58,125.25,52.09,22.00,3.86,13.62,20.34,36.67,24.19,58.35,34.38,5.00,33.94,13.69,31.08,98.39,60.41,174.08,6.38,22.00,7.34,7.23,4.24,13.45,11.88,31.40,10.54,27.00,323.27,323.00,288.00,11.00,585.89,585.75,286.00,11.00,145.25,145.06,149.00,7.00,592.93,592.62,440.00,10.00,32.05,31.81,93.00,9.00,0,휴식 (Relax)
320.00,605.00,145.00,627.00,39.00,15.64,25.05,19.91,58.24,25.49,103.75,39.05,88.00,29.06,20.67,17.06,46.67,21.83,128.50,35.94,44.00,7.24,11.75,9.34,42.64,28.73,48.27,27.33,16.00,41.23,23.09,29.70,93.98,66.78,184.59,14.78,33.00,7.58,5.39,1.94,15.62,13.87,34.39,13.36,24.00,323.76,323.50,304.00,12.00,587.28,587.12,275.00,11.00,144.54,144.38,128.00,9.00,593.65,593.31,418.00,9.00,32.26,32.00,91.00,9.00,0,휴식 (Relax)
320.00,583.00,140.00,572.00,28.00,15.64,25.05,19.91,58.24,25.49,103.75,39.05,88.00,38.17,23.16,23.14,39.66,16.54,119.27,45.71,33.00,3.70,14.80,12.34,38.90,26.37,46.89,23.47,21.00,46.96,33.56,20.36,83.77,56.34,179.64,3.79,22.00,8.96,3.55,3.59,14.42,12.07,32.98,11.37,26.00,323.76,323.50,288.00,11.00,587.95,587.81,275.00,11.00,144.84,144.69,117.00,9.00,594.31,594.00,440.00,7.00,32.37,32.12,97.00,10.00,0,휴식 (Relax)
328.00,605.00,140.00,583.00,31.00,10.86,17.35,23.71,60.93,26.79,95.77,34.09,96.00,45.82,22.32,21.65,31.11,9.91,130.10,34.72,44.00,11.56,3.80,19.22,32.25,15.37,53.53,13.74,32.00,45.41,29.59,30.50,80.08,56.94,183.66,7.54,11.00,8.96,3.55,3.59,14.42,12.07,32.98,11.37,26.00,323.25,323.00,280.00,11.00,588.65,588.50,286.00,11.00,144.15,144.00,117.00,9.00,593.62,593.31,418.00,9.00,32.37,32.12,92.00,9.00,0,휴식 (Relax)
328.00,572.00,162.00,638.00,42.00,17.38,22.06,16.11,68.35,21.34,89.94,27.84,104.00,42.04,30.05,31.72,24.60,1.83,136.75,24.72,55.00,7.95,13.84,11.24,42.15,15.40,64.52,4.16,43.00,42.68,25.24,31.67,90.71,67.68,193.90,18.43,0.00,11.96,3.35,3.77,16.28,14.96,35.20,9.75,29.00,323.75,323.50,272.00,10.00,587.98,587.81,319.00,12.00,144.89,144.69,123.00,9.00,594.36,594.00,407.00,7.00,32.60,32.31,92.00,9.00,0,휴식 (Relax)
312.00,605.00,130.00,561.00,28.00,1.88,27.25,22.78,64.50,6.78,91.35,14.12,120.00,44.19,8.75,23.64,45.35,21.23,136.23,20.64,77.00,6.16,11.86,9.07,44.29,20.40,68.29,2.80,48.00,42.68,25.24,31.67,90.71,67.68,193.90,18.43,0.00,11.96,3.35,3.77,16.28,14.96,35.20,9.75,29.00,322.76,322.50,288.00,11.00,589.37,589.19,341.00,12.00,144.60,144.38,145.00,9.00,594.36,594.00,462.00,8.00,32.60,32.31,98.00,9.00,0,휴식 (Relax)
328.00,583.00,151.00,594.00,33.00,1.88,27.25,22.78,64.50,6.78,91.35,14.12,120.00,45.98,16.01,13.88,49.19,26.77,129.17,29.14,88.00,10.13,10.02,15.01,39.12,23.45,69.11,7.09,54.00,34.62,14.67,38.21,80.08,62.30,198.07,26.83,11.00,10.18,1.28,6.69,18.44,16.71,33.32,9.19,26.00,322.76,322.50,280.00,11.00,588.68,588.50,341.00,12.00,144.99,144.75,160.00,10.00,595.04,594.69,473.00,11.00,32.40,32.12,98.00,9.00,0,휴식 (Relax)
304.00,572.00,145.00,583.00,28.00,1.88,27.25,22.78,64.50,6.78,91.35,14.12,120.00,45.98,16.01,13.88,49.19,26.77,129.17,29.14,88.00,4.42,14.98,13.22,36.25,21.06,65.88,12.09,60.00,55.21,30.96,51.28,77.00,40.33,191.18,43.50,33.00,10.25,3.95,7.90,20.52,13.88,33.02,10.77,29.00,322.76,322.50,264.00,11.00,588.68,588.50,330.00,11.00,144.60,144.38,155.00,9.00,593.66,593.31,451.00,10.00,32.23,31.94,101.00,10.00,0,휴식 (Relax)
344.00,594.00,140.00,594.00,36.00,1.88,27.25,22.78,64.50,6.78,91.35,14.12,120.00,45.98,16.01,13.88,49.19,26.77,129.17,29.14,88.00,4.42,14.98,13.22,36.25,21.06,65.88,12.09,60.00,33.43,31.51,32.59,99.00,39.26,172.46,59.49,55.00,9.01,2.06,9.87,22.67,14.13,30.85,13.48,32.00,322.76,322.50,280.00,11.00,588.68,588.50,352.00,12.00,144.60,144.38,155.00,9.00,595.01,594.69,429.00,9.00,32.43,32.12,109.00,11.00,0,휴식 (Relax)
312.00,583.00,145.00,605.00,36.00,6.80,23.46,29.00,64.00,5.77,90.30,10.18,128.00,56.92,5.92,24.70,39.66,32.02,130.95,21.18,77.00,4.42,14.98,13.22,36.25,21.06,65.88,12.09,60.00,33.43,31.51,32.59,99.00,39.26,172.46,59.49,55.00,7.53,4.49,12.64,24.76,11.21,33.85,10.48,29.00,322.27,322.00,304.00,12.00,587.99,587.81,330.00,12.00,144.60,144.38,160.00,10.00,595.01,594.69,418.00,9.00,32.63,32.31,107.00,11.00,0,휴식 (Relax)
312.00,572.00,140.00,572.00,28.00,6.80,23.46,29.00,64.00,5.77,90.30,10.18,128.00,46.54,16.90,21.36,34.79,28.20,125.25,21.31,66.00,3.28,14.26,12.67,40.85,18.36,67.31,13.26,55.00,40.69,21.70,21.63,110.00,34.77,178.77,58.68,44.00,9.81,2.07,12.84,26.91,9.69,36.05,7.80,26.00,322.27,322.00,288.00,11.00,588.65,588.50,297.00,11.00,144.30,144.06,160.00,10.00,594.34,594.00,440.00,5.00,32.46,32.12,110.00,12.00,0,휴식 (Relax)
336.00,605.00,145.00,594.00,28.00,4.45,31.11,31.55,64.50,13.70,98.27,8.78,120.00,46.54,16.90,21.36,34.79,28.20,125.25,21.31,66.00,3.14,18.06,17.26,42.94,13.38,65.25,17.24,50.00,40.69,21.70,21.63,110.00,34.77,178.77,58.68,44.00,7.87,2.58,10.89,25.61,11.19,36.24,6.80,24.00,322.78,322.50,304.00,12.00,588.65,588.50,297.00,11.00,144.60,144.38,143.00,10.00,594.34,594.00,440.00,5.00,32.57,32.25,100.00,11.00,0,휴식 (Relax)
328.00,583.00,162.00,627.00,36.00,5.10,27.96,23.56,56.57,17.85,103.62,11.13,112.00,43.34,19.86,30.53,39.66,23.70,115.76,31.37,55.00,3.14,18.06,17.26,42.94,13.38,65.25,17.24,50.00,41.71,18.24,17.03,121.00,25.70,187.73,51.32,55.00,7.87,2.58,10.89,25.61,11.19,36.24,6.80,24.00,322.27,322.00,288.00,11.00,589.33,589.19,297.00,11.00,144.60,144.38,133.00,9.00,595.06,594.69,429.00,9.00,32.57,32.25,100.00,11.00,0,휴식 (Relax)
320.00,594.00,130.00,561.00,31.00,6.40,25.05,27.16,56.00,16.26,103.75,15.39,104.00,43.34,19.86,30.53,39.66,23.70,115.76,31.37,55.00,5.66,15.74,19.91,45.49,10.05,69.90,12.43,55.00,36.45,27.38,27.84,121.50,30.99,198.55,42.14,66.00,5.48,1.86,12.70,27.59,11.23,33.26,8.40,21.00,322.76,322.50,280.00,11.00,589.33,589.19,308.00,12.00,144.32,144.06,160.00,10.00,594.41,594.00,473.00,5.00,32.73,32.44,97.00,11.00,0,휴식 (Relax)
336.00,583.00,151.00,605.00,33.00,14.25,18.75,23.77,48.00,23.77,109.25,14.25,112.00,38.13,29.78,41.15,46.67,15.59,110.37,21.97,66.00,5.56,14.89,9.81,36.80,1.95,75.09,8.31,66.00,44.76,17.27,24.12,110.55,41.69,205.06,31.63,77.00,7.15,3.88,9.93,29.83,8.79,30.93,11.18,18.00,323.27,323.00,264.00,11.00,588.64,588.50,297.00,12.00,145.01,144.75,176.00,10.00,595.10,594.69,506.00,10.00,32.54,32.25,91.00,10.00,0,휴식 (Relax)
304.00,583.00,145.00,605.00,31.00,22.07,10.75,15.83,48.66,19.73,101.25,12.36,104.00,46.42,20.29,35.89,39.66,23.40,99.97,19.13,77.00,5.56,14.89,9.81,36.80,1.95,75.09,8.31,66.00,44.76,17.27,24.12,110.55,41.69,205.06,31.63,77.00,6.64,1.35,10.20,28.02,6.25,30.86,14.17,15.00,323.73,323.50,248.00,11.00,589.32,589.19,264.00,11.00,145.01,144.75,182.00,10.00,595.10,594.69,495.00,9.00,32.71,32.44,90.00,10.00,0,휴식 (Relax)
352.00,616.00,140.00,583.00,33.00,29.16,7.61,13.52,56.57,14.94,107.06,16.72,112.00,57.15,21.77,44.52,49.19,15.42,110.05,17.94,66.00,5.00,19.73,5.00,33.30,5.00,79.38,5.00,61.00,33.94,15.20,16.73,99.61,51.23,213.89,41.86,66.00,7.71,2.66,8.66,29.68,6.01,29.44,12.39,17.00,324.27,324.00,272.00,11.00,590.03,589.88,297.00,12.00,144.70,144.44,187.00,11.00,594.42,594.00,484.00,7.00,32.83,32.56,84.00,9.00,0,휴식 (Relax)
312.00,583.00,145.00,605.00,33.00,24.32,5.60,6.96,58.24,6.96,107.78,24.32,120.00,35.84,8.54,28.93,44.00,33.15,120.20,25.53,44.00,5.00,19.73,5.00,33.30,5.00,79.38,5.00,61.00,20.05,18.00,34.89,104.36,37.45,192.21,29.14,88.00,3.77,3.51,14.36,26.93,2.58,23.45,9.84,23.00,323.78,323.50,312.00,12.00,588.64,588.50,308.00,12.00,144.70,144.44,187.00,11.00,592.99,592.62,451.00,11.00,32.41,32.19,73.00,8.00,0,휴식 (Relax)
320.00,561.00,156.00,572.00,28.00,24.32,5.60,6.96,58.24,6.96,107.78,24.32,120.00,23.91,18.88,45.54,66.00,23.39,126.88,26.08,66.00,11.54,22.52,14.82,25.71,18.50,72.71,20.71,77.00,20.05,18.00,34.89,104.36,37.45,192.21,29.14,88.00,3.77,3.51,14.36,26.93,2.58,23.45,9.84,23.00,323.78,323.50,312.00,11.00,587.30,587.12,308.00,11.00,145.72,145.44,198.00,9.00,592.99,592.62,473.00,12.00,32.41,32.19,75.00,9.00,0,휴식 (Relax)
336.00,594.00,145.00,594.00,31.00,23.56,13.30,11.13,60.93,5.10,115.72,17.85,112.00,27.99,25.23,54.75,66.91,14.37,116.80,19.18,55.00,16.00,27.40,16.00,30.59,16.00,70.66,16.00,72.00,17.88,26.77,40.45,108.34,27.24,190.55,26.27,77.00,3.77,3.51,14.36,26.93,2.58,23.45,9.84,23.00,324.30,324.00,328.00,12.00,586.60,586.44,308.00,11.00,146.03,145.75,187.00,9.00,593.68,593.31,440.00,12.00,32.41,32.19,67.00,8.00,0,휴식 (Relax)
328.00,583.00,151.00,627.00,42.00,23.56,13.30,11.13,60.93,5.10,115.72,17.85,112.00,19.96,27.30,57.20,77.78,5.76,106.56,12.98,44.00,11.32,19.25,25.02,30.41,25.02,60.66,11.32,61.00,23.56,16.45,29.95,98.39,29.95,182.00,23.56,66.00,3.77,3.51,14.36,26.93,2.58,23.45,9.84,23.00,324.30,324.00,320.00,11.00,587.28,587.12,286.00,11.00,145.29,145.06,161.00,9.00,592.94,592.62,396.00,11.00,32.41,32.19,64.00,8.00,0,휴식 (Relax)
312.00,605.00,130.00,561.00,26.00,23.56,13.30,11.13,60.93,5.10,115.72,17.85,112.00,19.96,27.30,57.20,77.78,5.76,106.56,12.98,44.00,11.32,19.25,25.02,30.41,25.02,60.66,11.32,61.00,23.56,16.45,29.95,98.39,29.95,182.00,23.56,66.00,1.86,1.60,14.97,26.25,4.56,25.44,11.82,25.00,324.30,324.00,320.00,11.00,587.28,587.12,286.00,11.00,145.29,145.06,161.00,9.00,592.94,592.62,429.00,11.00,32.31,32.06,75.00,8.00,0,휴식 (Relax)
336.00,583.00,156.00,594.00,33.00,16.81,10.92,10.07,53.67,10.07,120.83,16.81,120.00,19.96,27.30,57.20,77.78,5.76,106.56,12.98,44.00,8.68,15.60,26.99,31.62,26.99,63.06,8.68,66.00,23.56,16.45,29.95,98.39,29.95,182.00,23.56,66.00,1.86,1.60,14.97,26.25,4.56,25.44,11.82,25.00,324.81,324.50,320.00,11.00,587.28,587.12,297.00,12.00,145.62,145.38,181.00,9.00,592.94,592.62,451.00,11.00,32.31,32.06,77.00,8.00,0,휴식 (Relax)
328.00,594.00,151.00,616.00,36.00,9.23,18.40,34.01,67.88,27.22,96.90,33.00,96.00,5.63,41.10,45.96,77.78,22.55,86.64,34.93,66.00,6.54,9.62,32.97,37.36,21.03,64.80,13.41,60.00,13.85,18.24,23.11,116.93,23.11,187.73,13.85,33.00,8.83,8.82,13.87,25.00,11.39,26.46,7.21,17.00,326.26,326.00,288.00,10.00,588.64,588.50,286.00,12.00,146.00,145.75,181.00,9.00,595.02,594.69,462.00,11.00,32.80,32.56,72.00,7.00,0,휴식 (Relax)
328.00,583.00,135.00,572.00,33.00,12.91,20.02,30.94,57.69,40.03,85.32,48.92,80.00,7.54,41.20,56.94,66.91,30.50,76.19,45.41,77.00,9.49,13.89,31.80,39.00,20.31,69.35,18.39,55.00,9.33,20.98,2.58,101.41,19.42,207.07,31.33,11.00,6.55,7.48,10.99,22.00,13.54,29.12,8.30,14.00,325.23,325.00,256.00,9.00,587.95,587.81,286.00,12.00,145.70,145.44,192.00,10.00,593.68,593.31,495.00,11.00,32.60,32.38,75.00,7.00,0,휴식 (Relax)
320.00,605.00,135.00,583.00,31.00,5.40,12.47,23.54,51.22,39.89,86.00,56.58,72.00,18.19,27.01,51.69,66.91,33.17,69.54,64.23,99.00,19.26,19.65,40.65,48.38,11.88,60.13,9.36,65.00,29.34,42.94,23.89,118.98,38.28,186.28,22.15,33.00,6.84,10.80,8.63,22.56,15.75,24.44,5.18,19.00,325.72,325.50,264.00,10.00,589.34,589.19,297.00,13.00,145.10,144.81,187.00,8.00,592.30,591.94,473.00,10.00,32.28,32.06,69.00,6.00,0,휴식 (Relax)
320.00,561.00,168.00,616.00,33.00,2.81,5.67,18.37,46.65,47.14,79.80,50.52,80.00,7.25,37.49,41.95,77.78,27.27,76.52,72.03,110.00,10.37,33.29,27.90,62.97,17.78,56.83,24.54,93.00,26.35,31.51,39.45,101.41,75.64,172.46,56.22,77.00,4.63,5.87,5.51,17.72,20.66,23.01,4.16,24.00,326.20,326.00,240.00,9.00,588.68,588.50,308.00,13.00,146.95,146.56,215.00,11.00,595.05,594.69,484.00,11.00,32.57,32.38,71.00,6.00,0,휴식 (Relax)
344.00,616.00,140.00,583.00,28.00,10.29,10.13,23.98,53.67,41.84,87.78,54.26,72.00,17.58,28.51,51.21,77.00,16.27,87.51,77.46,121.00,5.40,28.36,23.50,59.41,21.23,60.86,29.53,98.00,16.23,21.70,31.06,90.71,76.62,178.77,67.22,88.00,4.63,5.87,5.51,17.72,20.66,23.01,4.16,24.00,326.72,326.50,256.00,10.00,589.39,589.19,341.00,13.00,146.64,146.25,226.00,11.00,594.37,594.00,484.00,9.00,32.57,32.38,68.00,6.00,0,휴식 (Relax)
328.00,583.00,156.00,605.00,39.00,10.29,10.13,23.98,53.67,41.84,87.78,54.26,72.00,17.58,28.51,51.21,77.00,16.27,87.51,77.46,121.00,1.62,25.45,19.00,63.89,23.85,54.96,24.24,92.00,6.24,4.62,44.76,88.00,96.03,157.04,47.83,66.00,3.26,7.20,5.05,20.62,18.31,25.96,4.06,27.00,326.72,326.50,264.00,9.00,589.39,589.19,363.00,13.00,146.24,145.88,210.00,11.00,592.94,592.62,440.00,11.00,32.79,32.56,74.00,6.00,0,휴식 (Relax)
304.00,583.00,135.00,561.00,28.00,13.19,13.33,30.38,68.35,26.06,90.24,60.00,88.00,14.93,22.81,61.86,77.78,11.32,87.79,80.44,110.00,3.86,24.05,17.51,60.80,28.78,52.34,21.68,87.00,6.24,4.62,44.76,88.00,96.03,157.04,47.83,66.00,5.36,4.25,2.28,21.54,15.68,28.46,4.93,30.00,325.77,325.50,272.00,9.00,588.71,588.50,352.00,12.00,146.52,146.19,210.00,11.00,592.94,592.62,440.00,11.00,32.62,32.38,83.00,7.00,0,휴식 (Relax)
328.00,583.00,151.00,594.00,31.00,20.97,21.30,38.13,71.55,28.61,83.49,54.03,80.00,14.93,22.81,61.86,77.78,11.32,87.79,80.44,110.00,3.86,24.05,17.51,60.80,28.78,52.34,21.68,87.00,14.83,15.58,45.03,88.68,92.81,155.56,46.98,55.00,7.34,2.77,1.26,23.41,15.51,28.08,4.92,28.00,325.26,325.00,264.00,9.00,588.71,588.50,352.00,12.00,146.52,146.19,220.00,11.00,592.25,591.94,473.00,12.00,32.50,32.25,84.00,7.00,0,휴식 (Relax)
328.00,594.00,151.00,616.00,39.00,5.48,18.84,41.41,93.64,22.18,60.11,33.03,56.00,9.39,33.37,68.32,80.08,20.34,76.84,70.67,121.00,8.60,18.19,14.87,64.54,24.24,57.65,24.36,81.00,10.45,11.57,54.76,99.61,81.95,162.75,52.54,44.00,2.13,7.99,6.81,27.20,8.55,33.41,11.49,20.00,326.71,326.50,216.00,8.00,589.39,589.19,330.00,12.00,146.90,146.56,215.00,11.00,592.96,592.62,473.00,11.00,33.03,32.75,90.00,8.00,0,휴식 (Relax)
312.00,583.00,140.00,561.00,31.00,35.27,22.08,2.21,88.36,25.63,53.30,11.93,16.00,38.11,32.42,38.11,49.19,38.11,61.55,38.11,154.00,8.60,18.19,14.87,64.54,24.24,57.65,24.36,81.00,19.97,15.53,41.31,99.61,72.60,184.72,72.17,22.00,1.48,7.37,6.43,25.61,6.82,35.41,13.49,18.00,324.16,324.00,192.00,8.00,587.29,587.12,308.00,12.00,146.90,146.56,221.00,12.00,591.63,591.25,506.00,11.00,32.91,32.62,98.00,9.00,0,휴식 (Relax)
336.00,616.00,135.00,594.00,36.00,17.54,21.77,23.01,64.50,32.55,74.45,30.32,8.00,7.89,9.31,46.00,45.35,46.00,83.26,7.89,187.00,10.45,18.52,7.78,71.45,26.26,53.95,14.72,91.00,28.23,21.22,49.24,110.55,64.56,176.78,61.17,33.00,3.48,6.21,3.91,23.85,7.98,37.52,16.27,15.00,325.66,325.50,208.00,9.00,589.39,589.19,319.00,13.00,146.30,145.94,215.00,11.00,590.93,590.56,506.00,11.00,33.11,32.81,98.00,9.00,0,휴식 (Relax)
312.00,551.00,162.00,616.00,31.00,19.63,14.06,21.94,64.00,29.55,81.94,36.49,16.00,14.04,16.99,52.02,55.11,41.53,93.22,11.29,197.00,5.80,21.93,5.56,75.69,22.43,57.03,8.73,97.00,36.53,48.85,23.34,122.98,28.41,182.18,26.49,77.00,6.48,4.10,1.70,21.40,5.06,37.57,14.19,18.00,325.17,325.00,216.00,9.00,588.80,588.56,351.00,13.00,146.71,146.31,231.00,11.00,593.69,593.31,506.00,10.00,33.27,33.00,100.00,8.00,0,휴식 (Relax)
344.00,627.00,135.00,605.00,31.00,20.63,21.56,14.67,72.00,21.65,85.69,41.31,24.00,27.65,17.60,23.47,58.31,8.63,117.26,43.75,230.00,15.20,11.97,15.14,69.20,12.79,66.86,4.49,107.00,47.15,59.34,33.85,132.91,24.29,172.84,29.69,66.00,6.48,4.10,1.70,21.40,5.06,37.57,14.19,18.00,325.69,325.50,240.00,10.00,590.94,590.62,416.00,13.00,146.11,145.69,252.00,11.00,594.38,594.00,484.00,7.00,33.27,33.00,89.00,7.00,0,휴식 (Relax)
336.00,572.00,156.00,605.00,36.00,26.57,26.35,9.58,72.44,26.84,88.06,39.42,16.00,16.66,9.40,21.49,48.30,9.71,119.22,54.35,241.00,10.33,16.19,13.15,65.30,13.56,71.01,8.97,112.00,25.68,52.25,27.17,143.42,5.40,151.40,38.43,44.00,4.66,9.74,4.52,17.03,2.84,31.58,14.89,12.00,326.20,326.00,232.00,9.00,590.26,589.94,449.00,13.00,146.44,146.00,252.00,11.00,592.96,592.62,418.00,9.00,32.83,32.62,78.00,9.00,0,휴식 (Relax)
304.00,583.00,135.00,561.00,26.00,18.88,27.65,6.93,80.40,25.22,95.35,42.14,8.00,8.18,26.20,9.95,61.52,13.18,132.24,38.89,219.00,7.10,18.33,17.44,62.20,8.57,70.13,4.01,107.00,25.68,52.25,27.17,143.42,5.40,151.40,38.43,44.00,4.66,9.74,4.52,17.03,2.84,31.58,14.89,12.00,325.73,325.50,240.00,9.00,588.88,588.56,438.00,12.00,146.72,146.31,247.00,11.00,592.96,592.62,429.00,9.00,32.83,32.62,81.00,9.00,0,휴식 (Relax)
344.00,583.00,151.00,583.00,31.00,26.87,20.87,14.32,80.00,17.88,102.82,48.34,0.00,8.18,26.20,9.95,61.52,13.18,132.24,38.89,219.00,8.94,20.00,14.06,58.26,7.70,73.24,2.70,102.00,22.73,63.17,35.41,137.83,9.89,154.40,38.98,33.00,6.49,9.51,3.73,18.38,0.98,31.77,14.11,10.00,326.25,326.00,272.00,10.00,588.88,588.56,427.00,11.00,146.39,146.00,258.00,12.00,592.27,591.94,429.00,9.00,32.71,32.50,83.00,9.00,0,휴식 (Relax)
352.00,551.00,180.00,594.00,18.00,49.68,4.30,34.68,104.00,39.50,95.23,25.63,24.00,51.16,57.56,34.63,43.01,37.86,167.39,63.22,176.00,28.04,11.89,24.62,79.88,36.51,102.16,31.35,73.00,36.65,81.52,37.36,118.98,15.48,135.21,48.43,55.00,24.49,13.01,14.38,13.93,17.76,20.66,29.36,28.00,327.81,327.50,280.00,10.00,586.26,585.88,448.00,10.00,148.43,147.81,271.00,11.00,590.87,590.56,396.00,9.00,31.77,31.38,93.00,9.00,1,주먹 쥐기 (Fist)
344.00,572.00,162.00,616.00,36.00,63.37,20.29,39.05,105.22,41.08,87.48,41.61,8.00,61.43,62.14,41.32,32.02,38.45,165.01,52.66,187.00,54.99,31.79,34.44,68.41,34.83,83.84,11.00,100.00,11.78,81.22,75.24,101.41,56.13,93.00,89.38,99.00,21.76,12.61,13.69,16.76,18.98,17.97,32.36,31.00,328.83,328.50,280.00,7.00,585.58,585.19,447.00,9.00,150.11,149.50,289.00,11.00,593.62,593.31,407.00,9.00,31.97,31.56,109.00,10.00,1,주먹 쥐기 (Fist)
336.00,627.00,115.00,561.00,39.00,74.72,33.43,31.30,89.44,25.20,102.62,27.17,24.00,47.31,71.31,54.07,38.28,60.19,178.36,30.79,209.00,37.79,30.02,46.03,87.86,54.80,89.10,24.37,120.00,20.62,63.05,62.35,122.98,64.21,86.01,111.25,121.00,17.54,19.06,21.01,20.62,24.84,25.75,25.25,23.00,329.83,329.50,288.00,7.00,587.03,586.56,458.00,9.00,149.06,148.25,303.00,11.00,592.30,591.94,429.00,9.00,32.51,32.06,110.00,10.00,1,주먹 쥐기 (Fist)
288.00,551.00,151.00,583.00,26.00,66.49,37.99,63.22,100.24,28.54,131.81,27.42,56.00,49.67,61.56,45.04,46.96,65.71,188.33,22.78,219.00,32.83,45.45,61.96,86.01,50.11,73.81,7.50,103.00,53.45,30.36,87.13,121.50,87.93,73.28,83.60,88.00,18.74,12.51,17.20,26.42,31.03,30.19,21.86,16.00,327.98,327.50,312.00,9.00,586.44,585.94,479.00,9.00,147.92,147.19,311.00,11.00,590.21,589.88,418.00,8.00,32.11,31.62,118.00,10.00,1,주먹 쥐기 (Fist)
328.00,551.00,145.00,561.00,36.00,73.67,53.77,71.54,86.53,14.33,126.19,16.05,40.00,79.60,34.03,82.62,95.71,113.37,145.16,77.05,154.00,31.53,40.98,61.73,91.01,54.52,69.03,2.71,98.00,74.60,25.73,106.09,99.61,70.13,92.38,96.11,110.00,20.62,16.92,13.01,23.54,31.76,31.20,23.43,8.00,326.96,326.50,336.00,10.00,582.38,581.88,446.00,7.00,148.22,147.50,301.00,11.00,588.87,588.50,418.00,7.00,32.61,32.12,117.00,10.00,1,주먹 쥐기 (Fist)
312.00,551.00,211.00,661.00,14.00,87.24,67.23,64.89,78.79,18.05,119.56,30.13,56.00,99.14,64.60,110.46,86.58,90.10,141.78,55.55,186.00,46.01,58.25,114.42,105.82,38.11,106.31,56.77,153.00,43.99,37.37,124.04,119.54,102.68,146.51,125.12,166.00,17.15,30.00,37.98,5.39,18.22,28.46,44.54,17.00,325.98,325.50,328.00,10.00,580.43,579.88,446.00,7.00,152.42,150.94,346.00,11.00,592.62,592.00,474.00,7.00,31.31,30.56,128.00,7.00,1,주먹 쥐기 (Fist)
414.00,638.00,120.00,572.00,39.00,25.38,111.79,174.78,49.68,103.12,48.57,140.11,166.00,92.82,34.89,125.66,141.35,125.34,110.31,72.21,241.00,39.99,43.27,106.62,118.96,53.11,109.87,70.69,168.00,48.32,42.82,134.91,110.60,93.03,140.77,121.71,155.00,18.23,19.30,34.94,16.12,8.64,25.60,55.54,28.00,333.46,332.38,406.00,7.00,584.03,583.31,533.00,9.00,151.63,150.00,421.00,11.00,593.28,592.69,530.00,7.00,32.04,31.25,150.00,11.00,1,주먹 쥐기 (Fist)
320.00,616.00,168.00,720.00,42.00,20.60,103.91,171.67,55.17,105.28,43.39,147.50,174.00,114.09,62.96,158.51,142.86,97.40,141.59,45.37,208.00,41.11,55.98,96.68,112.27,61.90,103.15,84.09,185.00,166.68,126.83,205.95,105.95,146.22,161.95,164.37,281.00,27.22,17.10,44.80,20.62,19.24,34.61,45.58,17.00,332.97,331.88,500.00,8.00,586.15,585.38,544.00,8.00,152.75,151.06,469.00,9.00,601.94,600.56,656.00,8.00,32.81,31.94,145.00,10.00,1,주먹 쥐기 (Fist)
361.00,605.00,156.00,530.00,11.00,40.60,125.60,149.76,40.31,82.88,11.80,172.66,207.00,124.44,73.25,162.19,132.02,95.25,132.05,55.61,219.00,40.83,57.02,91.75,117.00,64.50,107.67,81.45,180.00,84.59,118.70,245.20,59.03,146.96,166.98,210.16,367.00,2.66,18.16,31.67,45.88,37.18,62.03,35.15,11.00,335.10,333.94,525.00,9.00,586.85,586.06,544.00,7.00,153.06,151.38,470.00,9.00,596.80,595.19,791.00,8.00,31.45,30.19,168.00,9.00,1,주먹 쥐기 (Fist)
344.00,551.00,156.00,551.00,18.00,65.13,130.71,119.06,72.17,114.35,43.61,158.64,175.00,92.52,65.89,186.58,141.16,64.75,128.11,87.58,251.00,37.79,50.81,89.59,123.00,48.87,92.81,85.12,196.00,78.12,127.48,254.91,69.03,154.76,171.69,206.91,357.00,13.14,23.91,43.45,51.11,41.03,55.32,32.86,2.00,337.05,335.94,518.00,8.00,584.91,584.06,565.00,7.00,154.02,152.38,465.00,9.00,596.22,594.56,779.00,8.00,30.81,29.38,170.00,9.00,1,주먹 쥐기 (Fist)
312.00,480.00,186.00,572.00,28.00,53.90,143.82,123.12,74.46,122.23,62.22,161.12,151.00,68.57,188.44,311.54,55.33,186.89,101.33,67.07,115.00,51.04,26.56,137.46,80.06,75.53,121.13,102.20,145.00,75.46,148.61,259.27,73.05,136.12,150.59,206.22,379.00,20.26,24.72,49.31,44.41,33.05,53.19,36.57,6.00,335.61,334.44,526.00,8.00,576.90,575.56,571.00,8.00,157.31,155.56,468.00,8.00,594.87,593.19,778.00,7.00,30.29,28.88,175.00,9.00,1,주먹 쥐기 (Fist)
288.00,551.00,162.00,627.00,20.00,61.03,167.63,105.19,97.86,139.68,61.25,149.53,175.00,68.57,188.44,311.54,55.33,186.89,101.33,67.07,115.00,51.04,26.56,137.46,80.06,75.53,121.13,102.20,145.00,71.73,143.42,268.21,83.52,138.81,140.92,202.50,390.00,29.20,21.49,47.26,39.00,37.91,62.64,28.15,5.00,334.27,332.94,518.00,7.00,576.90,575.56,566.00,7.00,157.31,155.56,465.00,7.00,595.59,593.88,822.00,8.00,29.70,28.19,183.00,9.00,1,주먹 쥐기 (Fist)
369.00,594.00,145.00,616.00,42.00,44.50,148.82,128.76,105.60,162.24,82.78,132.21,200.00,101.42,199.18,282.63,61.27,159.37,73.34,99.58,82.00,52.27,17.14,132.92,87.80,65.58,114.21,112.03,135.00,65.49,147.34,277.55,87.32,127.88,144.25,209.86,379.00,23.91,30.61,57.81,29.15,33.13,73.23,18.69,16.00,335.93,334.50,591.00,8.00,574.71,573.50,554.00,7.00,157.86,156.19,461.00,8.00,596.29,594.56,833.00,8.00,30.54,28.88,200.00,10.00,1,주먹 쥐기 (Fist)
328.00,605.00,151.00,572.00,22.00,51.10,149.13,128.31,98.39,162.30,90.37,125.16,208.00,73.56,213.47,309.60,34.83,132.13,40.75,129.07,49.00,53.36,21.89,137.92,84.88,63.35,109.22,116.92,130.00,94.01,117.43,284.50,118.30,115.48,133.56,240.30,346.00,26.68,17.73,50.56,38.29,19.23,81.25,6.47,30.00,335.43,334.00,600.00,8.00,576.82,575.56,554.00,6.00,157.56,155.88,446.00,6.00,594.25,592.50,833.00,8.00,29.69,28.00,210.00,10.00,1,주먹 쥐기 (Fist)
361.00,561.00,162.00,540.00,31.00,10.59,191.56,79.62,88.96,112.80,127.17,68.85,265.00,86.32,192.33,314.50,22.56,139.72,34.25,145.30,27.00,42.57,25.17,131.17,64.44,84.11,90.91,140.06,103.00,115.00,97.52,305.35,126.12,99.56,151.66,219.30,367.00,26.78,19.57,47.30,41.73,17.18,80.89,3.26,35.00,338.95,337.56,593.00,8.00,575.45,574.19,598.00,7.00,159.14,157.56,441.00,9.00,593.04,591.19,843.00,8.00,29.99,28.31,214.00,10.00,1,주먹 쥐기 (Fist)
288.00,551.00,135.00,530.00,42.00,54.06,136.56,132.05,144.59,71.11,144.14,17.10,321.00,101.41,164.76,346.24,11.18,107.74,25.51,133.27,59.00,52.46,9.30,117.79,77.10,97.78,94.55,150.73,87.00,165.64,89.48,334.34,82.07,149.78,102.01,268.59,314.00,33.52,19.55,36.85,50.00,11.11,89.30,13.09,24.00,335.67,334.06,658.00,9.00,573.48,572.19,576.00,6.00,158.24,156.56,439.00,9.00,589.92,587.88,842.00,7.00,30.82,29.00,212.00,9.00,1,주먹 쥐기 (Fist)
281.00,594.00,151.00,583.00,28.00,124.43,115.70,157.11,166.71,68.01,177.70,78.70,250.00,100.14,178.57,327.25,39.29,101.46,38.73,144.71,102.00,80.08,21.78,94.50,65.51,105.00,69.98,142.60,116.00,174.58,98.48,328.90,75.00,148.75,106.24,260.51,325.00,42.96,17.15,37.87,44.72,21.02,79.38,3.73,34.00,331.46,329.62,657.00,9.00,576.15,574.88,598.00,7.00,156.33,154.75,437.00,7.00,589.23,587.19,873.00,7.00,31.28,29.62,208.00,9.00,1,주먹 쥐기 (Fist)
312.00,561.00,140.00,583.00,42.00,153.52,139.91,141.67,140.00,91.58,145.92,55.26,282.00,94.57,182.56,319.62,38.01,111.92,41.90,152.86,113.00,101.91,42.12,103.77,44.27,83.00,91.86,139.79,94.00,194.51,130.96,296.12,103.32,119.88,121.35,275.59,292.00,48.93,13.78,43.81,39.45,18.96,83.13,8.41,28.00,329.47,327.62,680.00,9.00,575.48,574.19,576.00,7.00,155.00,153.38,401.00,6.00,587.13,585.12,818.00,6.00,31.75,30.00,219.00,10.00,1,주먹 쥐기 (Fist)
320.00,661.00,120.00,594.00,28.00,165.31,155.74,125.68,131.03,78.52,158.91,61.20,266.00,122.60,151.61,351.63,4.12,136.16,43.55,185.45,147.00,97.56,39.91,98.82,42.95,81.19,95.13,137.72,89.00,186.60,114.62,306.59,93.77,94.73,153.91,281.96,259.00,39.50,24.38,39.42,35.17,28.72,82.94,17.92,17.00,328.47,326.62,640.00,8.00,577.85,576.31,600.00,7.00,155.24,153.69,385.00,6.00,589.16,587.19,807.00,7.00,31.01,29.31,220.00,10.00,1,주먹 쥐기 (Fist)
328.00,594.00,186.00,793.00,31.00,151.48,135.34,145.24,99.04,97.44,171.08,76.78,226.00,165.35,111.51,357.02,44.18,154.16,70.47,142.92,104.00,81.39,62.17,96.51,11.40,59.98,103.09,164.71,124.00,311.82,274.74,213.07,303.24,192.21,126.27,374.43,469.00,42.41,20.41,35.67,40.02,32.41,79.67,21.88,12.00,330.81,329.12,608.00,8.00,580.51,579.00,667.00,7.00,157.59,155.88,445.00,7.00,604.29,600.31,984.00,7.00,31.30,29.62,213.00,9.00,1,주먹 쥐기 (Fist)
414.00,572.00,168.00,561.00,20.00,185.80,184.94,124.90,74.22,28.99,217.02,99.22,312.00,185.52,106.11,339.63,50.61,133.51,49.86,161.08,125.00,86.65,84.98,118.80,32.76,82.97,82.24,142.39,101.00,311.82,274.74,213.07,303.24,192.21,126.27,374.43,469.00,41.02,26.72,50.74,46.32,31.73,63.76,33.59,4.00,336.78,334.50,678.00,9.00,581.78,580.31,689.00,8.00,159.02,157.31,397.00,8.00,604.29,600.31,1116.00,7.00,30.39,28.62,202.00,9.00,1,주먹 쥐기 (Fist)
369.00,638.00,120.00,530.00,36.00,236.46,241.91,78.92,130.25,38.14,160.10,53.97,255.00,259.82,171.93,270.25,49.74,172.96,120.98,125.62,38.00,70.55,76.21,99.37,89.89,143.23,26.77,53.45,10.00,183.84,254.66,316.22,434.17,319.28,94.97,243.75,338.00,36.08,35.96,53.10,30.23,18.47,48.40,49.58,26.00,340.37,338.06,621.00,8.00,587.31,585.75,668.00,8.00,152.98,151.62,354.00,6.00,596.17,592.12,1058.00,6.00,31.50,30.00,193.00,9.00,1,주먹 쥐기 (Fist)
273.00,520.00,162.00,605.00,48.00,95.57,177.47,216.72,204.75,142.95,108.47,98.55,114.00,201.85,65.30,255.53,149.33,159.64,201.01,194.21,80.00,79.49,37.39,58.38,84.59,141.87,67.99,36.27,32.00,210.64,230.11,322.19,434.51,338.54,126.38,212.52,305.00,34.26,44.95,62.07,38.01,27.38,47.76,45.20,17.00,331.35,329.25,623.00,8.00,579.99,578.38,764.00,9.00,155.38,154.25,348.00,6.00,598.20,594.19,985.00,6.00,32.27,30.56,202.00,9.00,1,주먹 쥐기 (Fist)
288.00,616.00,125.00,583.00,28.00,66.12,198.29,227.23,226.28,142.58,83.73,76.27,146.00,201.85,65.30,255.53,149.33,159.64,201.01,194.21,80.00,53.99,79.92,91.73,42.20,106.39,105.22,67.56,75.00,174.50,367.11,188.22,297.74,296.20,254.66,145.51,168.00,42.47,35.96,57.29,34.13,36.29,39.41,46.92,3.00,329.51,327.25,597.00,5.00,579.99,578.38,849.00,10.00,152.83,151.56,373.00,7.00,588.80,585.62,817.00,6.00,31.30,29.69,191.00,9.00,1,주먹 쥐기 (Fist)
336.00,583.00,156.00,661.00,42.00,53.80,223.29,210.47,209.47,118.86,108.73,85.64,121.00,213.50,81.78,238.86,128.41,141.11,189.85,216.08,102.00,53.99,79.92,91.73,42.20,106.39,105.22,67.56,75.00,160.99,290.20,288.42,316.72,174.90,340.87,219.52,37.00,18.71,41.82,37.02,4.24,39.40,12.94,70.42,28.00,327.86,325.69,628.00,6.00,578.58,577.00,828.00,9.00,152.83,151.56,404.00,8.00,597.02,593.81,874.00,7.00,32.90,31.62,198.00,9.00,1,주먹 쥐기 (Fist)
328.00,583.00,135.00,510.00,24.00,57.19,235.01,195.23,197.44,130.24,97.92,85.04,137.00,187.47,50.41,229.92,142.36,151.26,159.60,244.72,134.00,36.17,80.57,71.69,62.80,110.05,98.74,87.91,96.00,169.61,279.59,297.11,355.45,144.94,346.92,258.94,4.00,14.84,41.00,31.02,4.24,43.36,18.83,64.51,22.00,326.83,324.69,604.00,5.00,580.54,579.00,757.00,9.00,151.57,150.25,395.00,11.00,594.74,591.25,1004.00,8.00,33.14,32.00,206.00,10.00,1,주먹 쥐기 (Fist)
336.00,605.00,135.00,551.00,42.00,44.55,234.80,198.36,182.00,124.25,103.18,97.88,161.00,75.34,108.52,109.06,75.11,26.63,278.36,184.38,9.00,19.71,65.52,53.12,74.33,59.76,144.30,54.62,45.00,184.20,262.44,317.99,362.50,137.10,358.83,238.16,17.00,8.88,31.87,29.31,17.26,30.82,11.16,78.23,36.00,328.31,326.19,588.00,5.00,587.79,586.81,708.00,11.00,148.16,147.06,371.00,11.00,593.50,589.94,990.00,7.00,34.05,32.88,216.00,11.00,1,주먹 쥐기 (Fist)
281.00,530.00,125.00,460.00,51.00,49.50,229.69,204.24,187.63,117.45,109.53,104.06,168.00,95.32,89.29,124.60,96.08,30.31,289.86,189.03,12.00,50.78,49.46,88.85,48.02,86.65,111.28,66.05,82.00,345.28,100.26,423.80,215.41,303.86,195.67,390.82,150.00,30.76,7.29,59.73,32.76,40.07,25.55,54.82,5.00,327.94,325.75,562.00,5.00,586.58,585.50,740.00,11.00,145.90,144.75,364.00,9.00,583.86,579.50,1070.00,5.00,36.02,34.81,203.00,10.00,1,주먹 쥐기 (Fist)
224.00,594.00,115.00,540.00,36.00,192.35,84.79,333.42,155.98,234.82,57.77,42.13,23.00,95.32,89.29,124.60,96.08,30.31,289.86,189.03,12.00,75.96,31.49,108.52,27.31,97.26,122.13,66.77,52.00,420.05,99.99,405.77,179.63,280.90,265.07,337.00,74.00,26.37,12.30,56.94,36.24,37.74,28.61,53.39,1.00,319.64,316.69,578.00,5.00,586.58,585.50,793.00,12.00,144.22,142.88,368.00,9.00,579.14,574.75,1106.00,4.00,35.61,34.44,198.00,9.00,1,주먹 쥐기 (Fist)
296.00,616.00,130.00,627.00,39.00,223.07,67.90,335.98,125.00,237.64,25.84,23.74,55.00,85.89,84.99,135.55,107.07,29.59,298.94,179.50,1.00,91.21,16.26,103.16,47.30,76.44,129.85,56.71,73.00,374.47,53.75,459.34,128.38,328.48,292.23,324.07,19.00,35.97,6.93,47.16,25.50,20.81,30.92,59.27,18.00,317.68,314.69,617.00,5.00,587.30,586.19,771.00,11.00,142.94,141.56,372.00,9.00,582.69,578.19,1161.00,5.00,36.51,35.50,192.00,9.00,1,주먹 쥐기 (Fist)
328.00,540.00,192.00,627.00,16.00,250.04,86.75,307.78,120.02,205.71,53.25,35.16,22.00,99.37,104.36,127.02,108.34,50.13,319.56,158.75,20.00,81.13,45.61,132.54,49.77,75.10,158.51,42.80,103.00,337.74,33.28,513.96,120.33,267.60,319.88,315.18,106.00,32.85,8.17,62.13,13.60,18.77,29.11,71.50,33.00,315.43,312.62,576.00,5.00,586.07,584.88,837.00,12.00,145.24,143.44,407.00,9.00,588.11,583.62,1151.00,7.00,35.90,34.56,204.00,9.00,1,주먹 쥐기 (Fist)
378.00,583.00,151.00,551.00,16.00,212.37,3.40,385.25,30.07,165.79,121.11,110.44,68.00,92.14,76.43,105.52,76.90,72.26,338.71,127.79,52.00,86.04,59.05,141.84,64.85,59.67,144.80,53.30,87.00,339.87,49.99,505.54,140.69,257.94,300.08,323.15,85.00,49.25,32.75,74.78,17.00,7.81,49.41,46.03,7.00,321.32,318.25,619.00,5.00,588.00,586.88,837.00,11.00,146.22,144.44,432.00,8.00,589.32,584.94,1174.00,8.00,34.56,32.94,190.00,8.00,1,주먹 쥐기 (Fist)
336.00,520.00,174.00,594.00,33.00,227.01,56.71,384.86,60.90,125.18,113.55,76.03,13.00,97.60,115.55,178.31,94.20,90.36,338.98,84.16,126.00,103.72,69.25,132.13,62.13,76.44,151.41,32.57,110.00,345.51,54.03,494.54,138.60,268.92,310.10,315.26,96.00,44.45,30.09,77.34,15.30,9.55,54.21,41.08,2.00,324.60,321.69,630.00,5.00,583.60,582.25,867.00,10.00,147.81,145.88,444.00,7.00,590.00,585.62,1217.00,9.00,34.84,33.25,193.00,7.00,1,주먹 쥐기 (Fist)
304.00,551.00,140.00,540.00,24.00,221.45,51.70,392.05,57.38,117.56,119.86,76.25,5.00,98.85,116.75,181.08,86.45,95.53,345.30,83.90,116.00,103.72,69.25,132.13,62.13,76.44,151.41,32.57,110.00,311.67,78.73,512.50,181.22,286.34,328.01,275.97,139.00,62.39,30.28,59.70,4.24,15.24,64.99,27.42,16.00,324.13,321.19,654.00,6.00,583.01,581.62,798.00,9.00,147.81,145.88,458.00,8.00,587.44,582.94,1260.00,7.00,33.75,32.12,188.00,8.00,1,주먹 쥐기 (Fist)
336.00,605.00,151.00,649.00,42.00,236.14,51.50,380.28,43.05,117.49,135.71,84.74,11.00,102.61,95.59,142.87,65.01,42.06,289.57,116.08,172.00,134.39,47.42,122.58,67.62,45.96,122.95,6.64,141.00,364.38,24.22,549.89,195.39,254.82,316.41,221.09,194.00,50.23,38.71,63.53,17.26,18.91,66.10,27.19,30.00,325.14,322.19,678.00,6.00,579.19,578.12,785.00,10.00,149.58,147.81,403.00,8.00,591.06,586.38,1170.00,10.00,34.65,33.00,203.00,7.00,1,주먹 쥐기 (Fist)
344.00,605.00,162.00,616.00,31.00,252.14,43.83,386.28,37.48,102.48,126.54,71.46,5.00,103.71,104.51,153.62,54.01,44.18,281.08,126.47,183.00,114.19,71.05,103.46,46.62,37.28,100.55,26.48,165.00,190.08,190.65,392.20,76.06,82.68,206.78,77.20,371.00,50.23,38.71,63.53,17.26,18.91,66.10,27.19,30.00,326.17,323.19,600.00,6.00,579.90,578.81,763.00,9.00,147.82,146.31,396.00,8.00,577.73,575.31,971.00,7.00,34.65,33.00,203.00,8.00,1,주먹 쥐기 (Fist)
336.00,572.00,162.00,583.00,18.00,182.45,119.13,308.29,41.44,73.67,162.84,20.32,83.00,103.71,104.51,153.62,54.01,44.18,281.08,126.47,183.00,111.16,75.94,98.13,50.33,32.06,102.92,20.57,159.00,208.20,177.71,389.02,54.08,86.06,186.93,79.31,393.00,50.67,37.35,65.38,19.24,20.89,68.07,25.50,28.00,320.51,318.31,563.00,6.00,579.90,578.81,730.00,9.00,147.40,145.94,348.00,7.00,579.09,576.69,973.00,7.00,34.58,32.88,200.00,9.00,1,주먹 쥐기 (Fist)
352.00,551.00,186.00,594.00,11.00,173.07,133.26,302.42,42.45,57.68,145.90,25.68,66.00,61.36,91.19,231.41,33.02,77.82,234.51,62.37,96.00,135.61,90.68,112.88,43.28,43.99,101.23,50.13,93.00,250.21,200.80,327.90,81.47,23.53,248.56,66.48,329.00,52.97,46.04,70.10,33.84,27.94,49.59,50.27,53.00,319.32,317.25,483.00,5.00,574.30,573.38,633.00,8.00,151.62,150.06,330.00,6.00,582.96,580.69,909.00,6.00,33.50,31.31,195.00,9.00,1,주먹 쥐기 (Fist)
369.00,530.00,217.00,672.00,24.00,210.19,145.19,238.70,137.44,68.62,95.56,118.99,30.00,65.37,82.38,224.61,34.79,86.02,225.21,62.79,86.00,157.38,145.12,90.67,92.35,37.33,135.72,9.92,148.00,284.44,266.08,288.08,135.51,85.57,221.05,100.23,396.00,56.82,69.84,55.28,28.44,10.41,52.66,28.20,29.00,325.29,323.25,485.00,5.00,574.87,574.00,558.00,7.00,155.86,153.50,324.00,7.00,587.53,584.88,965.00,9.00,31.85,29.81,188.00,8.00,1,주먹 쥐기 (Fist)
387.00,661.00,140.00,616.00,26.00,251.69,241.21,142.75,175.70,53.57,88.71,36.81,69.00,104.00,40.66,247.39,78.77,104.11,267.25,56.47,131.00,160.76,157.13,76.19,88.96,23.13,120.75,8.68,133.00,294.29,294.10,308.73,124.20,85.33,207.36,69.76,363.00,56.82,71.40,53.29,26.48,8.81,53.51,29.42,31.00,331.65,329.44,455.00,6.00,577.99,576.81,656.00,8.00,156.65,154.44,370.00,7.00,589.63,586.94,943.00,8.00,31.74,29.69,176.00,7.00,1,주먹 쥐기 (Fist)
361.00,551.00,180.00,561.00,33.00,258.48,262.28,143.20,156.98,33.02,98.54,45.16,44.00,72.01,57.18,216.26,89.07,135.46,282.70,60.89,163.00,159.69,162.95,63.84,65.31,32.84,137.68,21.29,157.00,314.17,285.32,216.37,222.77,184.36,123.63,31.05,263.00,54.17,73.05,51.57,26.31,17.33,45.08,28.18,22.00,333.29,331.00,473.00,5.00,576.02,574.81,766.00,9.00,158.26,155.94,389.00,7.00,583.11,580.69,847.00,6.00,31.07,29.12,165.00,7.00,1,주먹 쥐기 (Fist)
281.00,583.00,135.00,583.00,28.00,265.96,255.07,99.03,192.85,67.23,144.46,72.10,3.00,72.01,57.18,216.26,89.07,135.46,282.70,60.89,163.00,159.69,162.95,63.84,65.31,32.84,137.68,21.29,157.00,269.63,234.21,222.64,242.99,227.86,50.65,100.38,190.00,56.57,75.18,48.09,22.36,18.41,41.42,30.00,18.00,330.59,328.06,545.00,5.00,576.02,574.81,776.00,10.00,158.26,155.94,434.00,8.00,587.37,585.25,828.00,8.00,31.28,29.38,152.00,7.00,1,주먹 쥐기 (Fist)
344.00,605.00,151.00,572.00,28.00,261.26,249.85,104.99,197.61,73.48,151.09,76.40,11.00,72.01,57.18,216.26,89.07,135.46,282.70,60.89,163.00,149.18,147.84,78.83,81.05,16.84,127.65,36.49,173.00,252.90,213.36,206.23,262.23,236.90,66.79,83.39,211.00,44.85,61.52,59.93,24.17,12.86,38.87,42.05,4.00,331.11,328.56,553.00,5.00,576.02,574.81,723.00,9.00,159.16,156.94,440.00,8.00,588.63,586.56,748.00,8.00,30.28,28.50,143.00,7.00,1,주먹 쥐기 (Fist)
312.00,561.00,180.00,696.00,33.00,235.61,218.99,99.95,223.03,86.42,147.85,75.93,20.00,89.35,88.18,192.35,117.18,110.61,252.63,45.15,194.00,104.35,100.64,99.33,90.35,63.49,182.19,33.44,118.00,70.49,146.82,107.56,277.11,21.93,232.20,284.25,25.00,27.89,47.02,60.73,10.77,30.09,29.21,24.09,22.00,332.84,330.50,528.00,6.00,577.86,576.75,703.00,9.00,162.42,160.38,459.00,9.00,602.94,601.31,792.00,7.00,28.68,27.38,133.00,6.00,1,주먹 쥐기 (Fist)
352.00,661.00,84.00,561.00,51.00,115.33,144.71,51.21,188.17,46.98,107.24,107.01,108.00,128.87,143.98,224.19,111.61,109.33,292.07,100.91,127.00,133.77,108.77,117.86,118.68,74.59,207.27,63.68,87.00,63.34,166.94,128.44,258.97,8.31,214.01,267.92,4.00,42.88,50.00,73.70,25.32,40.33,17.14,10.76,37.00,339.69,338.50,496.00,9.00,582.39,580.94,781.00,10.00,161.23,158.44,540.00,10.00,604.13,602.62,840.00,7.00,30.07,28.31,148.00,8.00,1,주먹 쥐기 (Fist)
296.00,616.00,130.00,627.00,57.00,115.33,144.71,51.21,188.17,46.98,107.24,107.01,108.00,128.87,143.98,224.19,111.61,109.33,292.07,100.91,127.00,133.77,108.77,117.86,118.68,74.60,207.27,63.68,87.00,63.34,166.94,128.44,258.97,8.31,214.01,267.92,4.00,60.05,45.44,88.19,28.65,48.49,35.12,24.61,19.00,339.69,338.50,520.00,10.00,582.39,580.94,750.00,9.00,161.23,158.44,524.00,9.00,604.13,602.62,906.00,8.00,31.81,29.44,131.00,7.00,1,주먹 쥐기 (Fist)
